red_ppg,ir_ppg
5.810336379749966e-05,-0.14226079230114616
0.08568865926092378,-0.0029587863469281717
0.1577607626601151,0.16004471025089198
0.331559766583463,0.22077999782266328
0.38113535162176854,0.39201243659010854
0.47165496314588096,0.5003624946423394
0.42534627188876795,0.5933357765448487
0.6337452693845568,0.6385592860263489
0.677218912214134,0.7798608719018231
0.7389139346564841,0.8460898391798092
0.7915162571070137,0.9356734680694917
0.9956362543780258,1.0305043259522504
0.9440007248474969,1.1222891713991612
1.0116825959457671,1.1189421635985572
1.0458419792091067,1.1929351362664096
1.0107624697558166,1.1986257214437848
1.1536326773842458,1.1925051170060934
1.1519601061779665,1.2254321120575093
1.1278409261905207,1.2343711768649637
1.0416135305748717,1.3277890843127578
1.026949250517163,1.3247021278455213
1.1208437435414014,1.2883134203647795
1.0203584676959527,1.223714290853514
1.038431032509375,1.3042861716365488
1.0040412473235827,1.237419474106095
0.9913177561865978,1.1795909950768488
0.8959113206180611,1.1150788027924476
0.8689642271924333,1.1711293373680576
0.8178387632559454,1.0027622485653875
0.7437261459174802,1.0557592738061434
0.7082067479123405,0.9451662646877782
0.6836886232705373,0.9521662532911327
0.5435561434838576,0.9372480409603532
0.6538851499382022,0.8124162144546613
0.47780600765196235,0.8031659237401558
0.49386783293209435,0.771605221226369
0.47871727561103466,0.6878763096508119
0.31296217430363704,0.5743014014716782
0.3623118219082889,0.518887159801395
0.2849869986354554,0.4869810821378905
0.26662926796460323,0.3321849182537251
0.17943955709093914,0.3823632796868198
0.20610218016884252,0.34429175008524054
0.11239419219212238,0.281358738764273
0.07189170360633397,0.23543453787421287
0.10817646160262367,0.14972463385552542
0.08762826354575874,0.14002117440726036
0.06761551406728915,0.14449735059011287
-0.021567263364381105,0.06611530478599804
0.070245830647059,0.08582121547004701
-0.00458192766130508,0.07910026008535896
-0.0709107455740606,-0.14966000280863484
-0.10234800445676359,-0.12222419016693042
-0.11698727026875642,-0.14634676127054583
-0.16407029933813072,-0.29828517588278836
-0.09893717374707653,-0.24926695893016967
-0.19047571995585538,-0.3070367488265923
-0.2138593902827931,-0.47599994845628274
-0.20705979793583557,-0.4306743068461382
-0.3395928205753916,-0.48939818792292844
-0.29011082001918254,-0.572340964191799
-0.4316080031078071,-0.7170478299548176
-0.43648798910324993,-0.650117907353038
-0.5214987473443309,-0.7078230634175477
-0.5278191030062848,-0.777444063184998
-0.5715192288273241,-0.8449882851538817
-0.6818343942856415,-0.8435635636067762
-0.708370646062553,-0.9271898645601875
-0.7126352284496962,-0.8788300503624213
-0.7762074953071293,-1.0419584568076772
-0.8321139157383391,-1.0938024915053215
-0.9109005507627426,-1.1584325727281048
-0.9645115874219105,-1.175568835901559
-0.9867705663606077,-1.264341132196193
-0.9333210798368304,-1.1211395268402904
-1.0825973025491216,-1.2592119590725828
-1.0008494131986225,-1.2509313164796665
-1.0571862019279161,-1.2262303286170755
-1.1775748839872893,-1.3179165253034977
-1.0763196930244543,-1.2074231889914313
-1.1907651930449716,-1.335364592373418
-1.0920345225915535,-1.246178215649239
-1.001144891816708,-1.2562024250737298
-1.0429557572587365,-1.260503766583923
-0.977012599294479,-1.1141210610544798
-0.9935371945964069,-1.1337336082484157
-0.9440029716273397,-0.978161593918488
-0.8696046668936185,-0.8709243548588589
-0.821155689237595,-0.8119806582925406
-0.6762111435936566,-0.8802265108516817
-0.6334145082787859,-0.6652612081377539
-0.5051512270532558,-0.7079221169897346
-0.48620361396549194,-0.5957213133916779
-0.34597182271074023,-0.4590608135780355
-0.20101642202742467,-0.2236112279781792
-0.17163582062413885,-0.1920148993501047
-0.18405899301451506,-0.08532157071199298
0.015979008335325603,0.032827260038906896
0.05516675301107588,0.11355358121586999
0.1331377925367862,0.2771682046311431
0.30814242480741355,0.34613044697441664
0.3926619006476927,0.4951578416979469
0.5605481884013492,0.5707667809382964
0.477151432410022,0.6988392952057577
0.5730610171225415,0.8096906416906657
0.8246570549877109,0.943377490067556
0.9091356928546018,0.8797853998932422
0.9314654715617836,1.010470183360823
0.914074168953002,1.0919664019039061
0.9178171418092989,1.143163981646827
0.9250704961203631,1.189366148729344
1.0670278730844946,1.178724741437093
0.9973582752944566,1.2478493242097284
1.1148756973023364,1.191950335950204
1.1898186191812385,1.2764173156355656
1.0991250064534834,1.2382808195506154
1.0188642368979837,1.3150143830294105
0.9657748005483348,1.3099325086601485
0.968482575212938,1.289091677563874
0.9711360856558499,1.2488874565815264
0.9822408944861459,1.140647371469093
0.9238328945964903,1.2372659161364479
0.8597515642382048,1.214393269694109
0.8707296659994616,1.0873336582158768
0.8483393544781024,1.0691006998842794
0.839051805305284,1.0831334459332924
0.6724484330795027,0.9161584569123985
0.7122553531193598,0.8877164858503458
0.5815983693229856,0.8051752093871538
0.5081854784687702,0.7926910203097504
0.48445979050134796,0.6480209457261514
0.3999902761305596,0.6281130949170669
0.37799950381814507,0.5846084988570467
0.281715294303505,0.5278408434673062
0.3135477081587008,0.5292820414639162
0.32877646942646,0.47606543857467676
0.2284826741559108,0.29145318728660125
0.15986876854144905,0.3720258881306157
0.14577830502940528,0.27718488456785284
0.10409882772443863,0.19038326675315873
0.07631231931939986,0.14705897089187187
0.06128905248423953,0.05469705724615564
-0.11607053255745296,-0.05314304443699683
-0.03664406032407826,-0.034202477249655035
-0.01089023440486409,-0.038654387860262235
-0.18846100338177618,-0.041751970782037705
-0.07795883886961281,-0.1412876795284939
-0.06754353989622691,-0.19855896316300126
-0.16083498009822078,-0.15819576584344652
-0.07863357713854852,-0.23590141668852754
-0.18209564537964298,-0.2700099562845366
-0.26935895167770013,-0.38723649021626916
-0.2419839148797477,-0.46582310378233416
-0.3719068688287493,-0.5386942211367187
-0.3901656675625113,-0.5340491570450282
-0.4692023770034336,-0.572611376030421
-0.34535235174791956,-0.6845705702368045
-0.46306514733535586,-0.8470733169579766
-0.5033229036478022,-0.8230757342776119
-0.6140885599796571,-0.8863689888673976
-0.4332425829583814,-1.0555907457591676
-0.7890417616649178,-0.9919031972746712
-0.8168450557226664,-1.0223849208402636
-0.8483193765754966,-1.1161876629483025
-0.8124163571093428,-1.1376224596608093
-0.8720864901867185,-1.1098386667991336
-0.9216165075371956,-1.254037368671736
-0.8762056815148361,-1.2275404306024056
-0.9840457326477627,-1.236715708036097
-1.0596807621590925,-1.2806223602488433
-1.0086586993569175,-1.2907073188523503
-1.1202136113176884,-1.27253554532016
-1.0404837771910898,-1.2848112538664551
-1.1077477282738968,-1.3022171669604496
-1.067616529026135,-1.2625569635867953
-1.0085208732108382,-1.1936865775164154
-0.9979603557597999,-1.1868644866390041
-0.9821124446763009,-1.172159409987949
-0.9144335921610132,-1.0258932317830793
-0.8764325468710312,-0.9952994924731612
-0.8145154298365314,-0.9239177716080833
-0.7365491715673115,-0.8623546676331527
-0.6706053810356678,-0.6447604305765521
-0.47186339200419936,-0.7185380306613398
-0.4130867104243399,-0.4534928861020324
-0.37278693074698643,-0.37303442337305964
-0.30353503040192786,-0.21623571060308705
-0.09784700038216099,-0.17581962806981744
0.0398850562181332,-0.0664821020080146
0.07270776809933176,0.14959276480808492
0.19682693317472272,0.2279242691532602
0.21868908836450066,0.30912807472348625
0.3577711624867545,0.3878736667167778
0.531677750873353,0.53912548675811
0.5262171180643269,0.5695778658930523
0.6014037162151891,0.7823380031965625
0.7282924515908518,0.8159559745914126
0.7367573479816093,0.8570379439931728
0.8526265723675414,1.0399348810756892
0.955719753063369,1.0084935292775095
0.9780707858169749,1.1263697659007972
0.9832064796682292,1.2286382089333419
1.0389588595359949,1.1521002596713044
1.0296247409966943,1.2190490692510745
1.128661688469802,1.323575240625887
1.1565364003016685,1.286011800165704
1.0934552297439804,1.2514746244917734
1.06577803509931,1.1959754247806105
1.060990373631643,1.3914488435066428
1.134698577150894,1.235584748360615
0.9374763079739621,1.1619533782203428
1.0198703806522822,1.237498620992559
0.8978416777009346,1.145699602823577
0.839550958554883,1.0881852291059029
0.7881685832196765,1.0292423403743898
0.8938966500029112,0.9918681667891612
0.6522322305506513,0.9164752725408011
0.6390260007654709,0.8593609836780759
0.6731308837818772,0.7649020552901582
0.6083189147441236,0.7954471669474142
0.43429329873742717,0.6707491659921297
0.3500087875948738,0.613390928004028
0.35970663904030775,0.6632674980854715
0.3392565438435826,0.5435408658533544
0.35112385381575073,0.3982388379760398
0.31521570010372324,0.45741260667357087
0.20297689604589383,0.3023178817854538
0.29209453913049854,0.2672861943367889
0.11902264552743175,0.232018946836964
0.10399483078917342,0.2471823131168107
0.00556845672838481,0.08406485395373196
0.022394197098251686,0.07367725461664597
0.058117534207923455,0.020308670850599845
-0.09021932399466387,0.03533521042921231
-0.06804178265042304,-0.024623439980869057
-0.10815469506537093,-0.14933026894283552
-0.06554809164723155,-0.16690321979700246
-0.10392492539506117,-0.2617374853084262
-0.2036561012273173,-0.2929409009745261
-0.20230120932957749,-0.34974585929417523
-0.17734704401475002,-0.44328318282920387
-0.3029423108266998,-0.46711599778500135
-0.3359952930084507,-0.4361284057639212
-0.4274192999760854,-0.6299776156058949
-0.3820423443888676,-0.5641126405612785
-0.44727422022725527,-0.6593450569902993
-0.5527558501134334,-0.7329507972196033
-0.5774767358466372,-0.8245063284449835
-0.5802568892753573,-0.9188272359631364
-0.6928989080658254,-0.8663953713881064
-0.728639990928265,-1.0768276859016808
-0.8192639492169512,-1.1204260919191107
-0.8847633243423975,-1.130298430240109
-0.8435348938697315,-1.1771555027763378
-0.954593616961932,-1.2131497931980162
-0.9823375960793125,-1.1938014997133986
-1.0685431768980236,-1.3358826476613144
-1.115069038872912,-1.335381790496783
-1.1255616604969454,-1.2329327367180078
-1.155883432755345,-1.2737740171599188
-1.0650942764614295,-1.2769832960579073
-1.0623987150079979,-1.319361172378211
-1.1144505112507725,-1.23719196530463
-1.0951595060778188,-1.1924679574351416
-1.0005010412161321,-1.159324783090034
-0.9599041192587638,-1.1324364962755797
-0.9800665341521377,-1.1165739851883247
-0.9149889553838636,-1.0042420752593377
-0.8786195383393929,-0.9662276747586013
-0.7346472755963988,-0.8603206152061083
-0.6618352034127672,-0.6810671056436941
-0.5465086353972365,-0.6603995987238094
-0.3920263599412303,-0.5230569102030854
-0.2522927881256529,-0.40519242225555746
-0.27781000628405494,-0.33168418991687243
-0.18511351103908277,-0.1585355055409009
-0.08603133862996591,-0.1012870769393597
0.07839386389768593,-0.014288186661543398
0.24183485198852522,0.16957647789316196
0.31482190335746285,0.3395388655470627
0.35330668639024165,0.5028451189004765
0.44839060897507976,0.4553945246933937
0.6340517117636744,0.7028602485159913
0.6504319474586447,0.7364029484918613
0.7749716581087325,0.8871236024866792
0.8435918059246192,0.8665171791601699
0.8727874289064933,1.0071283343290651
0.888595927108074,1.2559639578678812
0.9959091667057792,1.2067968453671452
1.0495825400059415,1.2871775453893615
1.0859588896059906,1.1241068712992317
1.0856151410838615,1.3483193324233342
0.9864537198343883,1.3581503151174839
0.9856845494213236,0.9052666802810041
1.0804152065277428,1.216972583549309
1.033100002467945,1.3618487429108626
1.0300366849739753,1.2980449988957847
0.9528605356438253,1.243078619037649
0.9326689134178685,1.1557990305930192
0.9359461898906444,1.1419010730393502
0.8882735970224263,1.2328904076056326
0.7864533269463265,1.0700778253764043
0.782092122008501,0.9753111428755719
0.7318451430711571,0.9035530433178238
0.6272117950852483,0.9284919737468569
0.6765302720019418,0.7887263228937745
0.5210515564916748,0.6765273670114986
0.35621323279512707,0.643600421855447
0.4361180777257027,0.6477838707859924
0.27523548603724396,0.6372209810879103
0.3730505072757151,0.5406633538093347
0.30718490471832105,0.5037644215016893
0.2783350630700104,0.4363576168379998
0.16172300009113277,0.3429803964979166
0.24349739133003878,0.22774902213508463
0.13262002084540336,0.3114077792238748
0.06985603490741502,0.16827514286330555
0.023971282883625017,0.14313893307203548
0.061978568952839215,-0.031432559802655996
-0.045564863283550465,0.016320120733176867
0.03573834455673544,-0.008409017389628532
-0.1173158243776231,-0.1316511256199195
-0.027001456008035066,-0.16072617218040053
-0.12973709938422223,-0.24922983295201476
-0.19289548014364977,-0.21744827537499611
-0.15080051804903122,-0.2938503311675502
-0.20651046844063187,-0.35652823732514044
-0.20192608521232688,-0.3841276283694754
-0.36648491132868755,-0.5568959415926419
-0.32962724810821253,-0.6245695786759177
-0.4030910760350126,-0.5923396069878951
-0.43619589858401614,-0.7708054628025113
-0.4933927055918265,-0.7826132665160468
-0.5374066058426026,-0.759466724421361
-0.6179359747004984,-0.8116027345324833
-0.62265063335215,-0.9026667111642431
-0.8310092461488239,-0.9224327258207727
-0.799120498685899,-1.0629295824282017
-0.8065447010974207,-1.0961641485867464
-0.8867791260971567,-1.1686675074866788
-0.9504594067592079,-1.230693752702969
-0.8895744977759508,-1.213609723358403
-0.9932447702784146,-1.118276003127767
-1.1047742342604037,-1.2749503940101232
-1.048056831572016,-1.324459943419413
-1.0774225818051397,-1.202282298694529
-1.1201341302897045,-1.2137308840606709
-0.9677094761998787,-1.2718522535855312
-1.0802369197159922,-1.2343242717570817
-1.0566437468881524,-1.1886340440363794
-0.9727079089706518,-1.1669850196255966
-1.0089912406244603,-1.1220344286206865
-0.9612607126167273,-1.042494790115254
-0.8542390394082711,-0.8859304146281316
-0.8151136294810442,-0.8863554685198899
-0.7197512412895923,-0.8396681574888429
-0.6098800203238509,-0.6449955007616278
-0.377774791346845,-0.5959723662664426
-0.42803672421431793,-0.369761122292171
-0.33948090665706687,-0.2320542550518278
-0.25553121611286433,-0.2151420801957383
-0.17515567677695837,-0.20918955593704588
-0.0671723269098329,0.04866911243366197
0.15393511661276052,0.1845345633172922
0.2813805355111692,0.22958161145049627
0.3287040673491157,0.3208239773544277
0.5297078508987687,0.4245981207544215
0.5782223453459274,0.6067660755968141
0.640196074237447,0.7439288572041428
0.6505237123323482,0.8856174224788536
0.7881291481511874,0.987528668173626
1.0889050925345063,1.0748234033897588
1.003638552419471,0.9783643870702825
0.9595594889210606,1.1535055937742742
1.0227015680686915,1.1254701654588892
0.9680516853575157,1.1857115977704737
1.1047128213309338,1.293862158642311
1.0844407369767923,1.2986102432282831
1.1159724437691014,1.3245084978080126
1.0924687036051772,1.186695649267257
1.0929545630591118,1.2440563095853405
1.0073078914750464,1.348897350597338
1.0468656931341234,1.2062716252491175
0.9548679482651327,1.218332689942492
0.8937333289178002,1.068598524054214
0.873104744159305,1.202571371782078
0.7765882168467388,1.0521421913539144
0.7860533648318728,1.0385460599766285
0.6007172564967996,1.0741520649645573
0.5557689108161262,0.9466656463587056
0.6300069634156217,0.8201170962028912
0.6019422775145007,0.8354165870855674
0.48384685919626935,0.7203621587870077
0.45497071852452176,0.6564149585471599
0.37563482937591713,0.6636059877182084
0.20240209373487048,0.4431360995893246
0.2594315659620562,0.4862926169229823
0.1898430034659594,0.3866530000716468
0.1690620516032206,0.2498545587154934
0.22046762535449962,0.22532388876829124
0.13434963736821523,0.20652309498784643
0.08376744485597987,0.2628900738833068
0.10467785538018279,0.0983982419325535
0.0050044807473613,0.07386856177390957
0.006883570020135814,-0.032796535420184826
-0.07327524833058299,-0.06944433403309488
-0.08631528377821525,-0.11398433033207915
-0.039243105326506156,-0.08524449478509634
-0.10605436915932685,-0.20817280126817717
-0.06639143093082019,-0.3088394592614064
-0.16466300188916538,-0.316135794769612
-0.14002778206597605,-0.39970594757113587
-0.34358266598527576,-0.43014396701224933
-0.3164598870699634,-0.4886269364330535
-0.4215243341204067,-0.5447980879521537
-0.39164155011142665,-0.6717111527304747
-0.42701446289367323,-0.7972034134288091
-0.5465475625581137,-0.7349897104542648
-0.6258733443840028,-0.8131504576204882
-0.6296907019152258,-0.8258669688358425
-0.6198190884905374,-0.9938181586912939
-0.7162900768343939,-0.9600544052501383
-0.755368147687559,-1.0977440891374057
-0.8403189999568922,-1.0875703428318424
-0.8590327191985627,-1.2125080378050492
-0.8779996742855435,-1.2285769793461727
-0.9844613673110117,-1.16983785523036
-1.0483929263739504,-1.29756963988474
-1.1180636714252037,-1.3997494573472946
-1.0967749169395618,-1.2324016254388226
-1.0339825852832343,-1.2953020921181233
-1.1088483382157768,-1.3280199238777153
-1.0090699560648166,-1.2341547127698054
-1.0471198256528769,-1.1624542481381048
-0.9756474844876595,-1.1071263000900373
-1.0944408956828144,-1.1236468099416954
-0.9321778806888126,-1.0059484722752956
-1.2338174369675032,-1.0709959723054763
-0.8721232353144313,-0.9481338047568715
-0.7787529972224903,-0.7792230293073046
-0.7364633090342555,-0.7176326266843392
-0.6164451386522896,-0.635036979519095
-0.47159617937586706,-0.48969122826179196
-0.5225417959554505,-0.42229078909574713
-0.2793888919315313,-0.25543719365844497
-0.19843573522564886,-0.07363997403837598
-0.14103666850485064,-0.06438570297489984
0.0065945136305888274,0.06047923372488075
0.21482511659490558,0.2196270169108476
0.30956079564561534,0.3331981063700706
0.38980166161328733,0.4492776643553016
0.48709026957592344,0.6765620889718931
0.5632955727945516,0.6518179574899908
0.669764278133231,0.7664362948410435
0.7768370009997628,0.8461510735225736
0.8098000654448793,0.9851887747231475
0.9261277176048899,1.0586544585493178
0.9491137400938192,1.0674613602800866
1.036173633907231,1.1245471521070467
1.0123369718674724,1.18152499601709
1.0790361860976048,1.2533907845968697
1.1487433182960098,1.1957322904951864
1.0413887678550025,1.1697281279733032
1.1601232971232975,1.2854235858118557
1.0649551222466525,1.3270094756888653
0.9738792173308298,1.296557025694837
1.0466538605908078,1.2347187447387105
0.9521608316688126,1.1697035613337632
0.9742759983727047,1.1042604480407194
0.9016259592808024,1.1499148498845715
0.8861664504987984,1.1214484258363995
0.7389483074219693,1.05117288594932
0.6951100405976445,0.9610847413479872
0.6281199593872593,0.8948626172559885
0.6178196250147922,0.8913259236298373
0.5036913720581234,0.8287080104623272
0.5551223907513599,0.6659525970624227
0.35704504810191484,0.60038713781815
0.3972718662637098,0.6713378710922981
0.406546212232638,0.367246189950582
0.30754655474163656,0.4726548316422692
0.29725728608920904,0.37700041890817865
0.18549450141177956,0.3779284802576687
0.1862060265544055,0.17159168644000258
0.1767490592075569,0.20694931302878078
0.15201660792480326,0.1668802592436145
0.07317204423735242,0.15228661764629783
0.021577536117318094,0.029409829241095822
0.029917440419515315,-0.010588040802242842
-0.1129283506134974,-0.03231196507754692
-0.05833098458037941,-0.0413241765728824
0.029202209348272556,-0.13421703973934285
-0.13166852029233458,-0.10382176587444292
-0.1301810517125925,-0.28745660644538956
-0.1877755015415648,-0.3224114031498587
-0.16969552729536194,-0.4279873050216378
-0.1671797436508027,-0.4357274206064449
-0.34579091845970894,-0.48605390153538275
-0.2714502797576239,-0.5782922763844197
-0.4650491071858782,-0.6066582106497758
-0.4290586097151856,-0.7073007079473648
-0.5072981032764912,-0.7650736061011432
-0.5267547489737047,-0.6643253232302262
-0.6546415785347077,-0.8269083675550498
-0.6119671918209623,-0.9006446279441188
-0.7348445149069504,-0.9871545483064358
-0.7921456291001937,-1.048827143621316
-0.8826490284272602,-1.0852786600174409
-0.8869753446861175,-1.1151176268807461
-0.9366508161687899,-1.1460317341521051
-0.9992918742694064,-1.1889400607359577
-1.0066089727636618,-1.269495361813286
-1.1524181623473908,-1.2096213368876005
-1.1296365723306827,-1.3658615701277366
-1.0962298526911072,-1.23575072963406
-1.0259378384193618,-1.311241337850735
-1.0729436083264032,-1.2665780600881877
-1.120242099156316,-1.3033808373407139
-1.0786089921749182,-1.2404121865835307
-0.964148108591527,-1.1472749651171834
-0.9571824412408574,-1.075201580856197
-0.9126583893620163,-0.9573187351279707
-0.8549159489943509,-0.9325699746515757
-0.8866580924850896,-0.9140305283614638
-0.7226475259766709,-0.8214701240139686
-0.6763866805165965,-0.6636436420609062
-0.5241895471738237,-0.5634773342148869
-0.48659419464803483,-0.5705826388973405
-0.4392170990589798,-0.4256658621195083
-0.2553464638680706,-0.20224141119585773
-0.01834139092897484,-0.13521996083780913
-0.07030077662530267,0.00030698611174458275
0.21576277965707732,0.08640558530820559
0.18577851216719363,0.21162692250082046
0.3293016364258824,0.33790063818367216
0.5060404384314453,0.4574317314340398
0.4705587585762969,0.601908257780341
0.4980499711126015,0.6806582208359439
0.7381938368026237,0.7834520738843186
0.7825520881184249,0.9052878469148434
0.8075815453969232,0.9715445258335063
0.9383954164508156,1.0079781880618757
1.0165985845582395,1.0500594016887603
1.0536336695729562,1.1724498208102552
1.0221509968220563,1.1291323245111478
1.0190741118439601,1.3156791627717217
1.0487777258029531,1.3256974776391028
1.1377664396045728,1.267900323199617
0.9892007035392989,1.2591905766661566
1.1443386183073643,1.2528535954840505
0.935848474422742,1.302759836043133
1.0228442283328982,1.2532243429910943
0.9708025697547175,1.2101440226571318
0.8891580171366881,1.2489854642732108
0.8378801694467802,1.1492663537416645
0.8703348646872785,1.0866774517167064
0.7680083797192006,1.0196181564078988
0.7286510205577981,1.0044867799908672
0.6730916383101841,0.9755794097365648
0.6374552253849574,0.8594297799839233
0.5577502100809647,0.8466996682753286
0.5843415263052925,0.7445195088805808
0.542025481618618,0.6955560008365071
0.3485390791152899,0.7182535661712234
0.2820164705164156,0.600243908932398
0.2999769310260804,0.5073881390264844
0.33517817678365386,0.4142353504762927
0.30226990469450693,0.3737648342227274
0.2549454781128308,0.3194226197968729
0.17202837989809178,0.30435012797241456
0.0801823824532797,0.18887457942359237
0.08886155889657261,0.2527251255398565
0.055156804976973194,0.1824118064822614
-0.024344826814904526,0.02429347623184104
0.01387498385244682,0.04941638288583722
0.024469732933875887,0.048328550919124864
0.01974632188694804,-0.07469428847097548
-0.02883255798890614,-0.20585082276796343
-0.01986613441438806,-0.12684882124603447
-0.5501986730016427,-0.20388032316531865
-0.1744870026748093,-0.29344894906833974
-0.21919545383537625,-0.281667948046171
-0.2792003191397993,-0.3839093662282329
-0.3472477910874947,-0.4826422976901997
-0.3470811334191642,-0.575298118627184
-0.3324757481306148,-0.7131095293964999
-0.5035074528075134,-0.6511750443787646
-0.5471516663528125,-0.7090709615532377
-1.0746317949537416,-0.7641529233642846
-0.6162943607463607,-0.7866763870547513
-0.8339304061515521,-0.8745605651456276
-0.6962127505001106,-0.9743350343221189
-0.7850798913962667,-1.0136226572686984
-0.7775824079595207,-1.1879970343058581
-0.9311864025534977,-1.1339002835662126
-0.8851848697587782,-1.131271046652167
-0.9818714953743548,-1.2005691028666092
-1.0487504390823736,-1.2372382600896332
-0.9742682390005366,-1.2067450346808073
-0.9971557763930812,-1.2800302517479656
-1.122397389261024,-1.2235818970245314
-1.0402028418262115,-1.29156694359837
-1.0190086001711816,-1.220799895180356
-1.1565204152938457,-1.2299402020405577
-1.0678979121553374,-1.2019095217037636
-0.9879743574898069,-1.2265385725685587
-0.9873410598113284,-1.0895187263989339
-0.9718756602868631,-1.1231398465228126
-0.7947435509637387,-0.9400595315789486
-0.7985367320253572,-0.8718812404306883
-0.7859376033783427,-0.8005123592287332
-0.6691294140155291,-0.7274786742746945
-0.5377841197696818,-0.5991953199310871
-0.5911057289280807,-0.5100094507026897
-0.3878076823008588,-0.46676262122881107
-0.25906780113041983,-0.3470328326894502
-0.1775809625461457,-0.17577729276047746
-0.11109359170449758,-0.05777107849078772
0.06818401881774373,0.043330129738275464
0.11445830282817916,0.19815429975463938
0.26421721941210385,0.27173144570745705
0.4053153738647818,0.42929217058429425
0.4416801559186924,0.5298205311057818
0.5030113780809634,0.7038223091637515
0.6655922197918641,0.7337377946993595
0.7014875346156791,0.8108425048933244
0.7963613085461797,0.9127908531758602
0.868896529850872,1.0214892474427595
0.9736377884025343,1.093923265059985
0.8771557751422716,1.0858362269812436
1.1034020682057102,1.229307146970334
1.0399337122486911,1.2442647450246325
1.0988868596786991,1.2014445868092987
1.056233326717704,1.3304304495457366
1.0865175790248869,1.3286703042170847
1.040899877879854,1.3401830998748427
1.074893559963498,1.3207794549210565
1.0672988837428063,1.3087364048518735
1.045511371656805,1.253427743212218
0.959124529487252,1.1812363931879424
0.8406792132754364,1.1027867137843934
0.8460285902753484,1.1365345754868676
0.9045966543442906,1.0886480588866618
0.802250594994116,0.9976623920355663
0.7239400782356631,1.0143425482023438
0.750230497483614,0.9910474713668959
0.6408342584611605,0.8866375021307392
0.5893074612884225,0.8569058129346886
0.5832754609710834,0.7797464307839984
0.498552159675839,0.8400500063171422
0.44123994029305136,0.6349408998097262
0.3530766534977203,0.56766279276803
0.38539833556707137,0.5724709085305555
0.29995862558001574,0.542816485771669
0.2818241468022478,0.4320956353615708
0.21648269086445343,0.34963889543793875
0.13864573019936313,0.3251195690190738
0.16844452464491555,0.2249574360369111
0.035132314587878785,0.28649837970395436
0.06082905229437936,0.18411740478026273
0.05552832780001072,0.12082827101594348
0.09820149561028456,0.10948846428302181
0.03482671008925821,0.057025599294093225
-0.012943863459173689,-0.15443707836389223
-0.05712076670374582,-0.03025084601832559
-0.054492712928232254,-0.2296057987293601
-0.06797716309465149,-0.13330383207953306
-0.06431397497991552,-0.24039006168107463
-0.08106003895049581,-0.310622334508863
-0.15949702198866234,-0.36641323493011146
-0.1936558755203219,-0.3779200011778241
-0.2883459500439926,-0.4659107518678693
-0.4191910670966295,-0.5615098620695548
-0.36117494416135754,-0.49882691094057063
-0.5494075102766411,-0.6802453656356886
-0.5165393557023035,-0.6754447704839978
-0.5292178973696536,-0.7860141005310053
-0.6391750765184157,-0.8410276188748027
-0.582985453132869,-0.9065306788885285
-0.6571635248551966,-0.9495713471999275
-0.8025199039322268,-1.0115351525968659
-0.8827330885889468,-0.9999081671698982
-0.8731699427437488,-1.0443666453019513
-1.0046339602573455,-1.0597753997781545
-0.9072391551560149,-1.1238014319740943
-0.9157848061352398,-1.24188251663969
-1.0739093279390748,-1.3073058570876877
-0.9695758763884842,-1.1691652271505673
-1.0694214152830925,-1.2274761813184052
-1.0390674701710167,-1.2441520387244842
-1.106928694750506,-1.264668237536376
-1.0599307251499759,-1.2929694563066334
-1.0125825346280126,-1.252649686332256
-1.1222521585670346,-1.1313595057394858
-1.000835942511646,-1.1568095223697514
-0.9801749541994715,-1.0722750893275101
-0.9299807699993898,-1.124439261182553
-0.9024862291530239,-1.033060486165117
-0.8599614917590216,-0.9787976218018829
-0.8737870964318247,-0.8525917845427987
-0.690941403867301,-0.8310706468815374
-0.6131229132168948,-0.6590071054900526
-0.5407365250772038,-0.5986378463608419
-0.4220287871451659,-0.4849097863445492
-0.3285637267292783,-0.485067564442561
-0.25965660339315794,-0.3740236492855772
-0.19157309436006428,-0.3117438082015719
-0.08892731752284444,-0.07603870350010798
0.06634257158181449,0.037643247533439936
0.11190375463369195,0.15663979689830218
0.27188923726104236,0.27024709561919874
0.3204206619120145,0.40556442411052995
0.5337265521492722,0.45888897750538005
0.5282326367465603,0.6066030614494178
0.6469549440570928,0.6881826412993162
0.7047001052830726,0.7984393594409717
0.8117463289078541,0.8557432834258107
0.818857321995005,0.9440615832661832
0.972826964125529,1.1198427817396004
0.9211646473709874,1.1001373402096888
0.993651140427734,1.0983697722089185
1.0888053218700424,1.125765944630115
1.0102971081440921,1.167498887721561
1.0846013930407692,1.211054259468024
1.041371846276204,1.2308943571593878
1.0712128601685968,1.3280182274526187
1.058124196399103,1.216225102572111
1.022663528199852,1.2306941099329145
1.0540425316725393,1.2772599616736295
1.055694702782513,1.228054262629559
1.010644273637309,1.187155695124088
0.9278750202317225,1.2172982569743147
0.8364973318134826,1.2106499737726488
0.8568488033023609,1.1745203206441983
0.844083288769881,1.0783546599933473
0.880567706178969,1.1445918222257765
0.7499114043429762,0.9206725051396533
0.687141619532564,0.9062272653459403
0.5267126095491649,0.9004237118256663
0.5956555802341473,0.8384603522775532
0.492534518363162,0.7782235127609716
0.4632409723160103,0.6716044225148209
0.39120614646918017,0.7414713806454372
0.43466295278939715,0.598015388504502
0.3778274764544343,0.5608197005957328
0.3104360620472749,0.5405787457179265
0.2259166412528174,0.38685454709256994
0.339947069653596,0.43351107509531517
0.19788636365918824,0.2879347849869858
0.1428684602205867,0.2695522141137648
0.06208645333477947,0.21852647619231694
0.13185025101389003,0.23090968018639557
0.1014796448699377,0.12799157203910697
0.09972654619274696,0.13059472352200108
0.11510476274552922,0.07810913723498285
-0.028623202197511938,-0.10502145877563913
0.01807431137405012,-0.13174496903618194
-0.05931737645936613,-0.1360480811734593
-0.13442693790893068,-0.11996467328053179
-0.04746917577000433,-0.2580537358423206
-0.10665975310989728,-0.15821725371579698
-0.11144776844820954,-0.29352538810988466
-0.23560199056210662,-0.4008856053230911
-0.22757601319360068,-0.3682272015120071
-0.2536320084727281,-0.45994346458702867
-0.31518212266462864,-0.47816889984969396
-0.368069347902083,-0.5046880172997148
-0.4155003261455262,-0.6740644588444098
-0.4825392249305832,-0.6551698709893401
-0.570652438139031,-0.7932699129259096
-0.5546563978238706,-0.8096729528710361
-0.6092033768984947,-0.8308281149682915
-0.6356474198733273,-0.8906175759415796
-0.7009621704027784,-0.9639930909103269
-0.774782517076479,-0.9994396273317496
-0.848370471084246,-0.9329535382241532
-0.8412601956854839,-1.1579031070310137
-0.9810702639265361,-1.082368299524103
-0.9306439908717486,-1.2247413873859754
-0.9465204757541187,-1.1401459614369436
-0.937128521912935,-1.3180267153976999
-1.0877417089859274,-1.2985851674498239
-1.0888712407442964,-1.2667311670620822
-1.06597370488348,-1.2221609723657225
-1.0789002395125988,-1.254429302033197
-1.0995176641541484,-1.2771378175643195
-1.0908158896597775,-1.1667943453410337
-1.1478076106274173,-1.1635649448280094
-1.0622188045039054,-1.1357470122400852
-0.9837469592965075,-1.202449907073438
-0.9621624023232159,-1.0786105486591535
-0.9811568842608809,-1.0280716270963879
-0.8871795941763904,-1.004257194200043
-0.8656228138374773,-0.8915562979755285
-0.872092851868499,-0.8127091439474279
-0.7433099415632292,-0.7441792324591484
-0.6046990978565887,-0.7908085150770305
-0.6201118783172666,-0.6076610433256795
-0.5141948559976605,-0.5141983806347192
-0.4022695057983143,-0.3784608549626186
-0.31410847515576634,-0.3517857583228003
-0.3103384983344987,-0.1829722942274276
-0.10142912503480127,-0.1633192621508758
-0.05721241668205341,-0.06296858591719008
0.08597511873350314,0.061754608185364074
0.12872808199430238,0.19182170584263863
0.24760530675092138,0.31729463264780267
0.3525082797424047,0.37279651579805306
0.483672263631658,0.4122268680039437
0.4659087437683116,0.5495842657794803
0.5598219774477712,0.6201010025579908
0.6576277544309753,0.7816174692908451
0.7590852689193169,0.8928436591461716
0.7808517428252452,0.824720726013751
0.8073128689651334,0.9045717002589935
0.8712835850842017,1.0454150753732188
1.020401976466545,1.1216826461654175
1.0646030001665112,1.0647041806283912
1.0210678367060955,1.1271518067440358
0.9948186201561262,1.1792821246475549
1.13061677932884,1.1565040339502304
1.0584146770744096,1.286771130598116
1.057647433991705,1.3548719040132144
1.091628932219699,1.2362161456488885
1.089364872961078,1.2451622799754287
1.001903250363624,1.3289349902058263
1.0716627914998245,1.2932876053128104
0.9328383529518303,1.1459377447025916
0.9569486741861813,1.228346705688451
0.926572337061617,1.2025397444806314
0.8657692462156841,1.1749030987605886
0.8612758690926428,1.1130102220088876
0.8359231566463156,1.031715656080728
0.7408051180714258,1.0517688303109636
0.7286887894922115,0.9043226909071147
0.7554208336808396,0.9305161343130852
0.7093471136811093,0.83990133405266
0.5897352063446044,0.8202202577241091
0.4924769709875111,0.8103841046296034
0.49893778776763315,0.6497166322234416
0.49416388610653994,0.6547995615100519
0.448482974813623,0.7039899590750871
0.41379150153201527,0.6628698574247248
0.23518189306377313,0.5650363202913309
0.2673671590381744,0.5432606591245984
0.22649162349829355,0.34935795322624874
0.2773059571304801,0.34891343708678546
0.258447581083872,0.3852532436127412
0.09984195240812119,0.35250298259223767
0.24526685991919567,0.16310828985357814
0.20842089711380155,0.2498251500176999
0.03859903069370685,0.1947401561635063
0.05366767229651177,0.08627647827860865
0.01582229410033761,0.01764241774547578
-0.019066577904941935,0.048629963348628874
0.003835250274520613,-0.06837138209021983
-0.020864764914388635,-0.05504547873216994
-0.032801017721113365,-0.09167375917708843
-0.13052564244731124,-0.11893248348312926
-0.07328497763655416,-0.22428872617244755
-0.0181918526394301,-0.24385633963496084
-0.10689991009755928,-0.3252753150153805
-0.12803461729561794,-0.3632505400853518
-0.23494892232901995,-0.3402006852086187
-0.2262236133632722,-0.3771834405329697
-0.2669927302749282,-0.4508965633823775
-0.32940117544803443,-0.5006518576607405
-0.35208372242602204,-0.5599533582678693
-0.30745702367291056,-0.6157667209869722
-0.37564710694764397,-0.6875174076607349
-0.47057528186237146,-0.7202228076806303
-0.41626598363122935,-0.891586626739621
-0.6774513098036806,-0.8099648370779696
-0.5566798477468226,-0.8829744385314525
-0.7860176968248099,-0.942712853694515
-0.7327227802589484,-1.0102486317017867
-0.7248028639644739,-1.0260005122436526
-0.8210653966448798,-1.014931730277558
-0.9335905012130494,-1.059595333015412
-0.9084136993193637,-1.148938835186288
-0.9368314528616022,-1.2108080798609002
-0.9198264638334616,-1.2959250063887773
-0.9649636058256382,-1.2627052956459206
-0.9954693862743638,-1.227868503351286
-1.0552026920696875,-1.302639506147898
-1.0822656551981096,-1.3141957066445833
-1.03514755741077,-1.359006267666904
-0.9701020237706688,-1.2440651500267228
-1.0553012113211866,-1.30728628105199
-1.0885659919312258,-1.270237864068584
-1.0727928390329107,-1.3352503002843108
-1.1062912930189377,-1.2181191557581534
-1.1194056674930928,-1.192807392261376
-1.0245270998726526,-1.177604020019433
-1.0880506764800548,-1.0816544799429688
-0.9299749613545623,-1.0272666073737757
-0.9419012214905322,-1.0542720812698154
-0.8976918693367568,-1.0300565557705292
-0.8015124028882762,-0.9047298152692563
-0.7782022126147754,-0.8131207401945648
-0.6291065476109148,-0.7801076698187879
-0.6212202676286451,-0.6473960319309386
-0.39395082293331574,-0.5768054184441906
-0.3720964710262388,-0.5062718774054322
-0.4091938313064254,-0.37381524323478055
-0.24940081499504635,-0.3042743606704675
-0.21175392064188056,-0.2505674031437373
-0.15310201966143408,-0.0463658094461919
0.03152266874658396,-0.04826211856740589
-0.017741526914543004,0.15390005227767328
0.1936617683359923,0.1996027319645049
0.16755860396689717,0.24114880917301867
0.2877480488456657,0.43331088623341374
0.36589884459012845,0.4934593813165976
0.527336648420162,0.4720207960803149
0.5056405038004553,0.5314301850005753
0.6540354032828873,0.645970575019535
0.6365390740184459,0.700446845331306
0.7991918454487172,0.8055081597593251
0.8011658114358552,0.8909137301508122
0.8229547844549369,0.9869662254355175
0.9199829804386881,1.0687630916285358
0.9803395136589421,1.1048927365039258
0.9660347619543668,1.0721379068813888
1.007644722164344,1.0542990198310223
1.0220158971212792,1.2089168267456825
1.104269214921653,1.1872359360722555
1.0598002462715843,1.3351449760781886
0.9982406102884637,1.2982039572679707
1.1098067254449684,1.265069701492697
1.1099962126387102,1.2534383562553837
1.0542398277684444,1.3015256570196863
0.9851691365356281,1.3130813927960239
0.9903132607067998,1.1412237061488828
1.0068708487030056,1.3021430201381605
0.9472141031459742,1.1741891847932728
0.9604841178757678,1.193971743004573
0.9770555068311877,1.1134809351406074
0.9030401898192018,1.104622228765317
0.8711982929823345,1.1080980039250903
0.8588087262957437,1.1608190646856118
0.7383785756361279,1.030031686944941
0.6993917435712401,1.028286193468121
0.8021366982792243,0.939734378432119
0.672479162828197,0.9687256876394936
0.5987404336549771,0.9336310162514642
0.5387497520095429,0.8526483666818325
0.565563289493762,0.8051740076140333
0.4409626881529307,0.7208927192781889
0.4945646662288244,0.7087650366359423
0.42663699494556084,0.6776907332174957
0.423396955186975,0.5972232277153481
0.3744796314127376,0.5219274599451077
0.3045264691784059,0.5097761290284148
0.34416177162503375,0.4309314823475377
0.2058039195460015,0.5315437370577996
0.31186141326202566,0.32335676778012146
0.10772979555768537,0.3346115865326853
0.18893421235071708,0.33770050839683263
0.19644965259570724,0.1365586512837526
0.08212365072706879,0.1523694895929315
0.09995285509396626,0.21031036002414066
0.07176454263778834,0.12789009337498516
0.11696634738216301,0.15305165916320998
0.027062454969415478,0.11030704357849336
0.036703895020703765,0.01065219411566171
0.007244559326112895,-0.04814714916315406
0.02019488570322077,-0.13661571161899486
-0.07043563403158037,-0.08569037063113374
-0.03986736980985742,0.004790807208567505
-0.04808990838440794,-0.255502019664204
-0.06707730321728762,-0.25610717625726487
-0.2021983062237484,-0.3006657780189708
-0.15602411276834585,-0.22247026867933736
-0.22352983656529624,-0.27741814724816594
-0.18981356524317544,-0.3234578852760922
-0.2153719063532722,-0.3820618937180615
-0.19215785461123017,-0.5122200807030849
-0.3499499967944324,-0.4872041113797409
-0.3583946403318656,-0.5329487548772002
-0.40177862519747276,-0.606440478527474
-0.38351447843313996,-0.648106443211517
-0.36470690843827963,-0.6640695851238372
-0.4608715463643218,-0.7117767561899698
-0.45580145839257896,-0.7670961310374683
-0.5326537761281568,-0.8084463185317048
-0.555104130913035,-0.8851931659611918
-0.5939961721677836,-0.9043711690870884
-0.7130157525549202,-0.9927230238372465
-0.7813224505029663,-0.9707461230716603
-0.8051011764210291,-1.0042090484140123
-0.8234278015923768,-1.0519861094582195
-0.83715820241131,-1.0778058710152836
-0.8492042104190992,-1.0566967878550726
-0.8285847824353683,-1.1783876858904394
-1.0740082596314549,-1.2607135989136902
-0.9983165534032316,-1.284388248428491
-0.9570458465218742,-1.178358804375282
-0.9330933250154163,-1.553108514328237
-1.0456619298373082,-1.2787701775763884
-0.9999890458421477,-1.3091167071208953
-1.144538654702422,-1.277312081337219
-1.125239809411891,-1.2292333482800057
-1.0880448134514948,-1.2897500127329045
-1.016167972380613,-1.2926227022567023
-1.0834700314099113,-1.321237055372859
-1.0946642835591136,-1.2619677532114355
-1.1001303945019152,-1.234233956400336
-1.0487787402888575,-1.1600384342705914
-1.0982569814164929,-1.1889713474171437
-1.033879855752793,-1.108874837533498
-0.979352105245179,-1.1141139206135524
-0.9452629195878911,-1.0652814841087854
-0.9527561723728377,-0.9526755315318217
-0.8668179698395193,-0.9666344566938071
-0.7433103975442548,-0.8856651484150063
-0.8546541812851239,-0.8619740762701195
-0.6327336950857227,-0.5646992286013792
-0.7339108855430678,-0.6343230658707606
-0.6430902996669945,-0.6947125692628376
-0.5191403220896443,-0.5445468045884442
-0.41908035571549085,-0.4792196545437089
-0.4660135445274707,-0.38078094969711307
-0.2812183571011566,-0.36086717028645204
-0.1714033626365144,-0.18585337759653026
-0.19330542713232135,-0.19096773093795508
-0.07020859487964756,-0.14634222605410185
0.0681679283346358,-0.02861938753644997
0.06295992428359821,0.07888347047099781
0.14609571196157256,0.08047915471934439
0.24703236707390153,0.15555777419512573
0.3049433426913063,0.3603567419824221
0.3991446393905567,0.39783039138733806
0.4409086902674666,0.41892846205457485
0.5583815329189337,0.5235072895782316
0.6248591588410766,0.6461653327654749
0.6093132199441517,0.6058772532959895
0.7153503790349993,0.7829675849479284
0.6956209393604167,0.7905187034278744
0.7872357539589959,0.8237405167266111
0.8479381984893687,0.8940654965929071
0.8638830834198493,0.991229023162888
0.8486924067166663,0.981267322607248
0.9371206598390124,1.1267504010641505
0.9788237155993929,1.0776228447923295
0.4349313558544038,1.1106474605121122
1.0568224528718544,1.1894653400665562
1.1303797607067096,1.2844348820535865
1.0960798966003016,1.2248802233150093
1.102837891416507,1.2536545445245018
1.0597630723123186,1.2542751802074485
1.0799535421948132,1.2847791213359436
1.0788514811362337,1.399906460182982
1.066659883152803,1.2735011670705798
1.0581326171791667,1.3075466008678078
1.113107814942576,1.3180656823444128
1.0852168735044119,1.3715996955154373
1.074202578064363,1.3190534946799741
1.0450781641297067,1.2207337140373067
0.9767575346818537,1.2422930406289845
0.9282994883173322,1.2551401091360443
0.9803589130151087,1.0994944228635415
0.9886544755524986,1.0814019715858236
0.9320675892669131,1.1533312708989325
0.8398865972461711,1.0889147823424108
0.77743013431111,1.1282037244654242
0.7767125635977694,1.005541473637534
0.7604810429217732,0.8957391238553479
0.7275841694373687,0.9627944832049183
0.5897749409495975,0.9487542857832038
0.5933592165460433,0.8649879654975915
0.5423888171483542,0.8921455376422255
0.637651116519788,0.805534708421171
0.6263529750349919,0.7279445246858054
0.5347520156097856,0.7146847450778319
0.5470693923678679,0.6659514136486799
0.3548523418721613,0.6664740318637465
0.402798687503934,0.5472011519952298
0.34549093704966255,0.603873895164141
0.3245212132064538,0.5323041599952403
0.37500117060730603,0.5086984249945642
0.34239052534711295,0.4898298834224611
0.2922487384182001,0.4084053711236564
0.264278907929572,0.46550345451736674
0.19969183168100443,0.40363197751415153
0.17743724937609298,0.3616281743753687
0.10642947028370522,0.30220335154855726
0.059206824281932594,0.2577261711609102
0.09700328557973598,0.1457506216143357
0.23108086540329317,0.14757488227399415
0.08326752241512991,0.12647023551460349
0.01924603857624823,0.07637800829850616
0.05991140409055762,0.06977051854850579
0.03001876601019382,0.16759984245269055
0.1183809064108341,-0.02451552786741242
-0.07054453482536088,-0.029926100868461685
-0.03717221800193088,-0.038390465339029387
-0.0219342343097793,-0.030919725722718158
-0.1326526222677047,-0.0750088752443695
-0.031895073589505704,-0.08451943765815098
-0.1468477095246392,-0.1749510034787912
-0.07836758167052701,-0.3196482734900433
-0.21018241023246872,-0.2786850771895858
-0.19005863013628374,-0.26856467910144
-0.14074280299650627,-0.37451313901179845
-0.20302411516090219,-0.38510515575091614
-0.28084824547600945,-0.3976192988738022
-0.33647656959296335,-0.42486284069079366
-0.26390022566773946,-0.46896099017069987
-0.2569883378197216,-0.5325477589198231
-0.38083482301856286,-0.4742549335854397
-0.3656703212717418,-0.556030210503973
-0.43865612654513964,-0.5634262627466189
-0.3552237361966791,-0.5425666304686669
-0.465018994949907,-0.6538662553506829
-0.5144722532771623,-0.7644469255087789
-0.5003170864119635,-0.8164911625578579
-0.5096503634840212,-0.8647570046981048
-0.5952849957184158,-0.8362314990785141
-0.5799607565900758,-0.8629052006533423
-0.6654353493387417,-0.9621148847266574
-0.744878554738722,-0.9015317125899803
-0.6371374781479047,-0.9668927714977117
-0.7907858983558267,-1.0212274650906237
-0.7917905189253017,-1.0672576012721686
-0.8113274129151867,-1.0382665511273017
-0.7361416065857234,-1.0795294624311882
-0.8961331356307997,-1.0184857678800796
-0.9402569493373594,-1.1825820741780873
-0.9067705322440818,-1.1900473004428789
-0.8779966405568179,-1.1136755933447064
-0.9267479859794205,-1.1741058228283037
-1.0366819185991443,-1.1681383103125853
-1.0070239795899738,-1.253075498402328
-1.0068398063256265,-1.238662088498283
-1.0887396061826904,-1.2915324099543342
-1.092706761711612,-1.2341089889109709
-1.086212824986479,-1.2326211987301252
-0.9884221969751357,-1.2614170024473697
-1.1049463141522478,-1.2435112859923017
-1.0547453925726074,-1.2192279059599354
-1.1400550852506028,-1.2900649513733702
-1.07424732086824,-1.2812666132593458
-1.0819376078989926,-1.2365128316349985
-1.0804110115048267,-1.2853222882225994
-1.1002064042051034,-1.2545961756065385
-1.0423276115459081,-1.1702019915441322
-0.9516981117728665,-1.196800750507971
-1.0316301560144676,-1.0483266359665098
-0.985872921058873,-0.9950471999875189
-0.9018323166791679,-1.004515197642719
-0.8468844304300046,-0.916000631421791
-0.8677688110327983,-0.9494698263929029
-0.763675020059315,-0.9352052906830346
-0.683243200170485,-0.7959816413771411
-0.7944625767817175,-0.8670430215064204
-0.6673427707611478,-0.6725032954059788
-0.6466870384005692,-0.7517727161323531
-0.5753814485897615,-0.6029858744992512
-0.6177159134946772,-0.5651875230178605
-0.5682918226916269,-0.6063199963644486
-0.4779993736948331,-0.5649707695356712
-0.437395603240792,-0.41091604660683273
-0.35881389791677915,-0.3188027801050664
-0.23982015157925674,-0.24073372551745786
-0.14914596878901643,-0.28613004013994014
-0.14345297432544596,-0.14078957543801857
-0.012661241016766724,-0.05031955071071802
-0.0384110032645783,0.05914857010299141
0.1004278739992859,0.11066844953505
0.08749081164018999,0.176419971883218
0.0149437222590742,0.16227817168344608
0.20183865386236824,0.308021106659553
0.2859018178069175,0.3153253814537512
0.30451712522235086,0.40763674215519435
0.4804538354021632,0.4779374594587533
0.3929546588545827,0.5894537590442548
0.49177754941284163,0.5336082235072638
0.5985286910497088,0.6634378889794377
0.6253154572545707,0.7423739745969383
0.7117184719656225,0.8490907242111556
0.6185237292723363,0.8390339687543724
0.7242272706751476,0.8514864807986441
0.7786379080918934,0.9181099148583373
0.7874176724302248,0.9209308484231429
0.8463910319387512,1.0708118903056063
0.9108898229738543,1.0879190702659984
0.9235514551250028,1.0951553200316098
1.0758077286648573,1.1502157698873772
1.015132538530086,1.169650751825457
1.0635059223405017,1.151503826605036
1.0663969097372565,1.1992670284063476
1.0689479302696663,1.2381479248396376
1.0499887778053947,1.2359281434150857
0.9757674051296399,1.1541054320526638
1.127801611614277,1.275110611871624
1.0736336777085296,1.3114403629895193
1.0609985649755875,1.2313420082575819
1.0452487689946832,1.2623035020237134
1.0920435831980273,1.3092158632035358
1.0457473313945544,1.3399164948781273
1.0549442985398683,1.3068930319208707
1.1759784999635245,1.2521357951337324
0.9651911488105105,1.2200908237038939
1.0872887354019092,1.2418084208732432
1.0864022349271856,1.2358617102090148
0.9990089067096986,1.2241000726736666
0.9067542347520313,1.2386483084670008
0.9849173291679717,1.2634680999855918
0.8732708633251085,1.1507514120203433
0.8773554729561908,1.1080618056642753
0.9009361603731403,1.138304669615969
0.8968234809842197,1.0869487600855217
0.7590725595661623,1.0768602905711744
0.7650664224130596,1.0213453271089037
0.7425647862040883,1.0401784173544182
0.8171253767608176,1.0761108207208616
0.6766754097979042,0.9077227760885598
0.7401462188707398,0.9501657701956134
0.5766110322829812,0.973519368744852
0.6585504789226366,0.9137852890078906
0.626405455493575,0.899740068381816
0.6720176488689915,0.8468377803240202
0.5933638540818152,0.8128417849747266
0.4664066570914731,0.7744782756418854
0.45837065500676294,0.7284761030048718
0.4414106175285123,0.7993923808863552
0.4454946616865826,0.6725267492695248
0.29982395871719814,0.6172896312622066
0.3978367222329286,0.5247248595072088
0.35055849636900654,0.567558198669683
0.2771231882125716,0.5050474827507797
0.2513607644503806,0.4861326144546277
0.2885401054255696,0.5747976795465479
0.18611443673287104,0.42882846448071565
0.22868166078132496,0.38308200675332016
0.2668269158668579,0.388736188336898
0.2204615216380047,0.32546590016519394
0.2843688719195009,0.34056682093468243
0.22159398009323328,0.30230999560099286
0.14463069751511645,0.1702105290765602
0.19169091226550244,0.19392353330809553
0.012710774041260794,0.058994822350411896
0.07812170078213168,0.15947485697422897
0.09068528820173634,0.18645471518044038
0.06761257543598938,0.21702360518197558
0.05900117829297942,0.08201050747297105
0.007973248050722068,0.0697408641426691
-0.011728512831438567,0.020299871598431753
0.04021102435835189,0.022755911282108833
-0.04133597309031743,0.057074508690293034
0.029717911611042095,0.003633446393739543
-0.024105935034976267,-0.0564950279159754
-0.008943456714444846,-0.05025417638682594
0.027124003797329363,-0.13443555009711539
-0.09207930027475919,-0.07238856314879286
-0.0936557285281179,-0.15734485930038553
-0.21259723525609736,-0.18963246844149478
-0.0441420126123339,-0.14183948420601122
-0.13862727349873272,-0.3121057095473664
-0.1771371645392869,-0.23591842364480795
-0.11221956696598108,-0.25810515359249503
-0.20504055726895482,-0.36289900956296295
-0.26827969242718447,-0.3006373035318474
-0.23361592762439287,-0.3752503388356462
-0.2728526006539495,-0.4280639679027295
-0.26688443078065127,-0.4233350401129089
-0.3945810511499768,-0.5289860959028198
-0.270104091679789,-0.4505298450010729
-0.3281011303413623,-0.544014992244043
-0.3332231919726532,-0.6100815946702902
-0.45122647097184004,-0.5796436174978662
-0.3824906994313415,-0.6232155738144572
-0.5116610425592711,-0.641810640056085
-0.3608865374708078,-0.651506390615833
-0.5368267423274601,-0.6933935164968132
-0.4721706172792229,-0.6534158164406862
-0.4834733208395581,-0.6754494437564411
-0.5555200085016132,-0.7458632233404181
-0.5303961206126993,-0.7581754508419528
-0.5803205420764309,-0.8876445770197491
-0.696886731828011,-0.8868383043258965
-0.6734281754632216,-1.0074370151154233
-0.6922745244866735,-0.9213715123316071
-0.8042630575140766,-0.959645047967683
-0.7972508583694212,-0.9508620294529939
-0.7485219001958899,-1.0044367843963091
-0.8732781319660443,-1.0287396598293914
-0.815457523929634,-1.0666066342558531
-0.8966973909367819,-1.090502977975284
-0.9470828848656165,-1.109218934033941
-0.9571087296749996,-1.1857441070287718
-0.9206393275080964,-1.0504770749193506
-0.9903123528247129,-1.1194302604949584
-0.9531210210292574,-1.1822874152073697
-0.9993607514728172,-1.2216282536555712
-0.9379950555639602,-1.2329316730928028
-0.96386014649925,-1.2731700686472365
-1.0472325428187697,-1.2508740533417344
-1.0702003354886565,-1.2771260350944047
-1.150500733799612,-1.1739030088719238
-1.089653669233039,-1.26969767844614
-1.0847513860293854,-1.298354896859202
-0.9844141895247115,-1.2815719596739163
-1.0769417408163238,-1.3625553492956448
-1.1727924250641284,-1.312342291017556
-1.1311076480445346,-1.2498447944466722
-1.0874847132029575,-1.2548428576075341
-1.0457512938175622,-1.2977202784777002
-1.109306060664014,-1.2539811655210253
-1.1642738630421288,-1.210851581523293
-1.5963735199719176,-1.2984832642590658
-1.0680028551561231,-1.1863146788112002
-1.0192631528229765,-1.1289656182563825
-0.9166611443526994,-1.2047700269692856
-1.0316899010228526,-1.1155394507544063
-1.079802715021667,-1.0779844021844824
-0.9767625485086548,-1.0110807699989488
-0.9390761242461447,-1.078311461363034
-0.9033119647405333,-0.934393000475478
-0.8978395701423962,-1.0838172713423877
-0.8299539897026347,-0.9638032201429241
-0.7380693066735716,-0.9114543409310389
-0.7286219127099669,-0.8682198006142192
-0.7135691602368769,-0.8330677348186167
-0.6655518526481651,-0.7882331945052043
-0.7456306802407142,-0.764170455696165
-0.6831812197266498,-0.7939646217206564
-0.6363395674835789,-0.644064504588617
-0.5591456378124527,-0.5903624790181761
-0.4783029913278064,-0.365623876394335
-0.5784661499430541,-0.47953563438746033
-0.47634047141193675,-0.3885732064831524
-0.33063034384512413,-0.4178118824654453
-0.31471911484856063,-0.34192252336070544
-0.23416656243958897,-0.26797767360727115
-0.1699775023098231,-0.22221935719359975
-0.07861218066918568,-0.1535466734783395
-0.05800344753917223,-0.13375125934622759
-0.004377217583825657,-0.0015299224544433332
-0.047615112023571333,0.016467667541083933
0.01289441656031732,0.039649210374855484
0.01874909276088005,0.18961416237256246
0.1971827529457078,0.200345362051721
0.20347524421096674,0.22824322014071174
0.17262419527909262,0.2557960970991476
0.2904849075265929,0.3127532594833381
0.3312343507720843,0.41383926637380963
0.4524479344081144,0.4196506465403245
0.39252667340474345,0.5196186966506056
0.458006423481821,0.520246922230678
0.5487611517353298,0.5268220362203292
0.5671819670412551,0.6535664358877922
0.7377586677624568,0.6922677037282798
0.6055242266675155,0.822759070760109
0.7618397094585369,0.8029505212111886
0.6744209378822026,0.7788270033508126
0.7217279059231891,0.8793323987415864
0.7977340453613675,0.9778357299870104
0.8305928232542433,0.9247528780433018
0.9300093834321028,0.951251739033364
0.8274044005543726,0.9190690985186518
0.8868817143511161,1.0003468401127025
0.9352316835885791,1.0503494611585207
0.9380257191508747,1.1164765770596365
0.9356786984811989,1.1548123301230446
1.0167052480873024,1.115613709853061
0.9903896862667949,1.2279489158234025
1.1087108268124317,1.3197304542548052
1.1239602492670668,1.2163457015612205
1.065803076744076,1.172552590403126
0.9947831396991079,1.1646104771854047
1.0614802280206836,1.2812329268176568
1.12610618176285,1.235356027361492
1.0555637746188222,1.2615506427731575
1.0333712615897017,1.2191771585781734
1.1043683237209079,1.2723688550984584
1.2177550029262836,1.1252712414025812
1.1390234125501542,1.212355623763769
1.02976820032455,1.3477117268746088
1.0767360379886954,1.3474995734007214
1.0437240612826917,1.2541154812473043
1.018608537889944,1.18759799448648
1.0006143846941051,1.2584106746847055
1.0322831307880271,1.2534019996181658
1.0312745149634106,1.2340519587415546
1.0291547434456407,1.196764666436555
1.0179378810927284,1.2124026116731872
0.8938109753021098,1.2286973461297912
0.8975525967431695,1.178441630318603
0.9020564355965162,1.1024767369882194
0.9290145058269043,1.1403212909852993
0.8609668594719175,1.1937787415287733
0.7995659547840788,1.0644807219907961
0.9192709844413971,1.1403364948368393
0.812456075660302,1.022405848069675
0.7944597836822919,0.9714302505946288
0.6786515929095146,1.0415751926812358
0.6991863497524479,1.0014750679392495
0.6744224052613675,0.8748037834043203
0.3818218216122414,0.9903311142917727
0.5349504154302037,0.8486799666205446
0.6057013245266487,0.9467205431213022
0.5485901146187463,0.8288471255574228
0.5451075326588781,0.8613271965373951
0.5544716456072681,0.830050310050373
0.5370633002907538,0.7723732058968384
0.4149416238680078,0.7513525878030641
0.5247308843310927,0.636141299677663
0.5142683012415552,0.628213672847457
0.45327449510189266,0.6390487563058325
0.39019357030634527,0.6109792953988572
0.33686200432955254,0.5836673239749158
0.34227524213621335,0.6026779722474559
0.36022423088402333,0.501582461908341
0.2992922218779194,0.4897982299646277
0.3233221798363236,0.5235286748330392
0.21378685054019445,0.4762427081023411
0.28014338564416896,0.47342497404659384
0.28820084880978236,0.5425072844465515
0.1363406475194538,0.43304062503697976
0.267841835139992,0.372576379099905
0.19906997057468628,0.2737077482850556
0.1645954199789499,0.4080162835332336
0.16549454757229273,0.30189907887959777
0.1339039936241437,0.14546792467151595
0.13273485154017284,0.18751482841939612
0.055244755884403085,0.12364933121896231
0.20346673708047922,0.2389772085717403
0.14775393802855918,0.1761268603171817
0.05763278686521314,0.10059486400158298
0.1251028610686975,0.07721770202470271
0.058473554618838686,0.16404719833495868
0.05956822260784739,-0.004074481422800619
-0.007900461092273325,0.04268328045267962
-0.008952380226070453,-0.00010625496749945562
-0.0022255477377347167,0.04520107279376806
0.015924799793270453,0.02709539076750124
0.05405167933014687,-0.039681510354078686
-0.0757815759557878,0.0009586691437765416
-0.03655400691156383,-0.09165557254706672
-0.03135662519877981,-0.13757752432534245
-0.035457561796102904,-0.1077768322150646
-0.059315718702887876,-0.1719416252959298
-0.03682352770332213,-0.16701871641005947
-0.1324870744123294,-0.15696768409670678
-0.0795954266507373,-0.15038365352335156
-0.1697155715437073,-0.278055328437032
-0.16728088066289332,-0.25539164680599064
-0.06666677353949667,-0.24760449880854787
-0.09852208797087858,-0.3636182308042284
-0.19397094398308856,-0.3213615737340143
-0.18664048881220802,-0.3917688393583561
-0.1931488160421757,-0.3592933016057758
-0.10231456969858829,-0.47462875557499273
-0.22145273281822564,-0.4362098492010754
-0.2525975909768377,-0.48360729906217975
-0.2551130024064147,-0.4429211074004426
-0.2597965802015445,-0.5183968206963213
-0.4165139900081732,-0.5438825225649917
-0.3084248864966782,-0.5207731991360395
-0.37816547126108,-0.6018180922636698
-0.4147421481932008,-0.7588242145086062
-0.3885897366706064,-0.6536857021398248
-0.4648586543967754,-0.7203522169257641
-0.5330461134858946,-0.7082211668801892
-0.6042706416613375,-0.7220296970826102
-0.5887225009716298,-0.800714588933669
-0.48951037730334035,-0.8633014018389302
-0.6171545106027766,-0.8819330341303626
-0.5073461992612714,-0.9155420345107673
-0.544320897700938,-0.84731859116492
-0.6796429390576031,-0.8796064234574386
-0.6589411936253927,-0.9530719952267778
-0.7327348791160144,-0.8764174049962975
-0.7698229121970772,-0.9983776960083668
-0.7700354058022709,-0.9269058503213825
-0.7340029114241609,-0.9658382837639167
-0.8311151675283468,-1.1249850783539077
-0.8515636555846406,-1.1388696807712517
-0.8792418840157088,-1.1796553970099262
-0.9080097635111153,-1.164421040610501
-0.8796073830680514,-1.114534536729358
-0.8224205212557468,-1.268736307966767
-0.9384170747940414,-1.1858451625005115
-0.9077313725083206,-1.140806448306312
-1.0037753227057071,-1.3427199927082558
-1.0529379253492719,-1.2892992081893555
-1.0620235453046338,-1.1406959097172304
-1.0734559963927435,-1.3823539603943003
-1.0813857867198287,-1.1676007505892887
-0.9803034683867767,-1.2369238355162766
-1.1223478414460086,-1.2622279801565426
-1.1176001702272558,-1.324201064263504
-1.0919527496417498,-1.2265992358427635
-1.0583092424224205,-1.2189114243970867
-1.1644260596474223,-1.2408386509382112
-1.1583538944554512,-1.3209825478723838
-0.9794614014336739,-1.2546817353364408
-1.1299925207976793,-1.2300078211332743
-1.0686264010603896,-1.3413784794728631
-1.0229911845981672,-1.3136866942343852
-1.161604319114843,-1.254392614664184
-1.1294890737833374,-1.170272594553649
-1.096980212432864,-1.1924633729367842
-1.0747697428391383,-1.159687028667102
-0.998023392346754,-1.2771693995573725
-0.9647327800104039,-1.1819968412016784
-0.9875355621765511,-1.1092972335521414
-0.9831173195763347,-1.0560766309946985
-0.9387063254586746,-1.0499063615949575
-0.869135582493161,-1.0527195245678664
-0.8921170972640601,-1.0194214979083218
-0.8961674048289616,-0.9550252875779796
-0.8690360715844607,-0.969620771618438
-0.7987831100918523,-0.892003681438727
-0.7673922583999933,-0.7741781810024236
-0.8387005247466259,-0.7935522190133857
-0.7161360940909649,-0.8225498191176898
-0.6891129615173707,-0.7975720894299694
-0.6482357803472052,-0.6580345358587877
-0.6262930652264223,-0.675634307170711
-0.5538771316953104,-0.5040558561093328
-0.5911763684207871,-0.5676324515486008
-0.44164313318174464,-0.5132294173476951
-0.37677924542893404,-0.4947678835008667
-0.3453869949416673,-0.4119225229405963
-0.35149927886272164,-0.35782945270300665
-0.3650559822904542,-0.2640195352720694
-0.11568730075557022,-0.26538939093038805
-0.19740475052111287,-0.19335408669313123
-0.12325444913599701,-0.1916676807927637
-0.014980447825622675,-0.1430436394089955
-0.04592003128108395,-0.017798970749712272
-0.00284867541064035,0.04958375466020355
0.08723913713049801,0.03373906868583409
0.10273207576455128,0.11293057397128024
0.31630427020656926,0.2693323244988342
0.18993811442906572,0.22130788965567275
0.2628398378415043,0.3198971358876711
0.2986548273972329,0.41980234880236916
0.36041616449111474,0.38234451275442644
0.36151147966999664,0.535925963738142
0.40863104678688833,0.5057130071619441
0.4756994692388713,0.534850662534903
0.5296927844663948,0.6702086928009694
0.5304691192107059,0.4897943615676242
0.7396890717772092,0.7533918023398116
0.7063319203999344,0.7743614782948001
0.7317243703081711,0.834909941973027
0.725890072716865,0.7965236086361729
0.7586967639153592,0.8630085131156937
0.773504762169817,0.959623076372548
0.7870792852168701,0.849171667332591
0.8945058240953805,1.0008794669784076
0.8243949747494079,0.9497259289709656
0.8777984228498482,1.0972056559274597
0.9087168637779719,1.0806588831630255
1.0246246662842085,1.031130116723994
0.9620577921765564,1.1240814989722623
0.9822159779994497,1.165273322655463
0.9987822545975719,1.1294246661420706
1.0303403751209819,1.0574843877013853
1.1224934842252998,1.2150392759590007
1.0790026861683373,1.1966166310011603
1.1701435899124577,1.1967741497327915
1.188084468976384,1.3424076837383159
1.141431142403599,1.2926081817045474
1.0957506253440934,1.2697308166233223
1.2340249275375115,1.2326945789728432
1.1265128581475092,1.287731777047406
1.0958959560758499,1.2532423403985244
1.1854318143597882,1.301286450048321
1.0904146897701583,1.2100926770440248
1.0966942184225983,1.2925632657392059
1.0719935731579981,1.1639132091530915
1.0699564267306219,1.2588891142150767
1.043285160188242,1.2175198629067536
0.9113025647598115,1.3153455959487486
1.007901472346709,1.1757269181355248
0.9377833651859908,1.1974758934545886
0.9732525971543142,1.1261242199707655
0.962127949547005,1.1675830287975342
0.8653996544834546,1.1228107184145917
0.8814992612881826,1.1201848782769546
0.7822180878816449,1.0858096187548583
0.9068155963907366,1.1308877979681644
0.26551286746153824,1.077422853704573
0.7373552469904724,1.005405320391705
0.766955281530862,0.9698160865440634
0.7497469436259986,1.051479852101855
0.732445496414492,1.018941050785472
0.6823434339532384,0.9361518955481596
0.5415410585479971,1.0533890622905462
0.5851446216051882,0.8301904283961519
0.6317275816584988,0.8962617851502074
0.6115718618713664,0.8555644163086038
0.6539933245064222,0.8340793803540688
0.45874945954693935,0.7843113757067159
0.48034211537973925,0.7237882595528768
0.5430764590802245,0.6702063588764751
0.3951305481781584,0.6733434883193015
0.41442206523397845,0.7494759704689162
0.4742984682610646,0.623383285607586
0.38593761786032493,0.5854829787256556
0.36619230492440463,0.5264529567172797
0.23721411740799142,0.4654972920709287
0.3577049237096576,0.45166676167597575
0.28250511468736655,0.4519172023154224
0.24059387528348838,0.3638053992156794
0.31027615289515087,0.43864103273009825
0.3239730838192719,0.3910683152448828
0.2865590830349623,0.3433928494121984
0.18920261165349256,0.3559733115810011
-0.4459665319684153,0.3020305648566153
0.14677466936443498,0.2679810643185039
0.13894926682560013,0.2648150983752729
0.1484251833978165,0.2807712429579025
0.053601432292155075,0.26030091986601805
0.13149887685896966,0.19996066330592077
0.12420965353145091,0.04588978750734869
0.09185025663564791,0.058564181114476574
0.010904673182057852,0.04850549363335145
0.0753794755041338,0.0453105299964689
0.06605052802171225,0.019551147807516225
0.03225411267495297,-0.03637764537681658
-0.01201493362371488,-0.07525791950925538
-0.04699770704047784,0.07927350511686156
-0.029956446237993997,-0.04066873524160808
-0.10821326154787084,-0.12165112994066346
-0.0706615219410757,-0.09525757555148963
-0.021092084066554585,-0.1058019671860867
-0.0451883678049619,-0.1716734741330594
-0.11510185132276227,-0.20114950466060325
-0.114714725152006,-0.22786938643966917
-0.1350256024149177,-0.24810741423661223
-0.10972090501085162,-0.28729899145105625
-0.17300368529498114,-0.3109473749297535
-0.21681322204165557,-0.4110166113935816
-0.23928609380288873,-0.46154616666583326
-0.2581190822735238,-0.3633703203676583
-0.22755219839990826,-0.376755543345663
-0.17039294705638386,-0.4628573927172645
-0.3724197116548688,-0.4434291032745776
-0.30849993718704805,-0.5997799161733738
-0.4173549839474216,-0.5236887055801218
-0.3292767747898789,-0.5368968151333595
-0.35650738867235526,-0.7002801471467313
-0.3835677282519838,-0.7346621513139387
-0.4953920452588222,-0.7889269917635426
-0.4771251314999892,-0.7545975006084451
-0.5025242295929738,-0.8336522092318283
-0.4980414762780402,-0.7428723411029712
-0.5683383919210478,-0.88705223473937
-0.5862694026877836,-0.8208616521196679
-0.6493898463699186,-0.8499588061667834
-0.6195131705380725,-0.8879994054466266
-0.6606386778931846,-0.9105561049306348
-0.7342993797922652,-1.052322593335268
-0.8227479069514029,-0.9243290614260007
-0.6692048582123651,-0.9871378938763556
-0.7172753414554992,-1.0369249984929907
-0.7222806010627161,-1.0990817944574094
-0.8424332029186647,-1.112500145750152
-0.9149695307686716,-1.076331537229734
-0.8865063874315083,-1.101731284828247
-0.9561988325774486,-1.1859077855699645
-0.9463642077272876,-1.1642831550913344
-0.8722427557768782,-1.1880759234820362
-0.9535423361059621,-1.1625914637338777
-0.9788648356113261,-1.2424821829282842
-1.032371732552006,-1.2585903065382988
-1.0126845550571795,-1.1712774764802694
-1.0963803226428128,-1.181814438131218
-1.0755886616702424,-1.300172968852489
-1.049252044137329,-1.2614087427625407
-1.1186631764144772,-1.3705672878316704
-1.0489975483571603,-1.3644643847514257
-0.9837881772090028,-1.2690341779103218
-1.0899428244031706,-1.225672828925155
-1.0095604991072085,-1.2551226434296376
-1.082718205456795,-1.3066661463090052
-1.051754120638399,-1.2128542685186081
-1.0111811817332288,-1.22826792412938
-1.0838196189985754,-1.1337744872378424
-1.1206772971310712,-1.2041313152933382
-1.0497829266865903,-1.131534599129329
-0.9801487300211331,-1.1120543943190069
-0.9704078567120776,-1.0785170225421459
-0.8766440173588764,-1.0656730358396806
-0.9623253515625159,-1.0763106297531595
-0.8994279023640316,-1.0385024738403266
-0.8688099852703879,-0.8420145507241804
-0.7642131969961996,-0.8919875345023791
-0.8914491052158671,-0.9187813433358645
-0.7368877450033868,-0.8279970636279577
-0.6313134691168876,-0.6657783217095419
-0.601500861753262,-0.703687318487737
-0.5252820292478806,-0.5777526128759722
-0.4309683666222892,-0.6144722719713066
-0.4433651758082611,-0.4694332857046527
-0.3922226309097443,-0.4193480538500505
-0.35029953639606287,-0.37695209407986063
-0.27099517050746136,-0.3022665413939686
-0.29234636158753957,-0.19179273064690194
-0.19058757466565285,-0.1354145027722179
-0.21950092165194707,-0.11413336771289674
-0.01070916475662552,-0.005941998755119152
0.06210575575795352,0.01775774767719736
0.03970923705441023,0.05662005528931424
0.2381290831619593,0.18481151616816294
0.16517961590017835,0.26036341337678554
0.25717147406768176,0.30746726148018777
0.27122108386697297,0.40056392957925224
0.43567736112204747,0.36369424609276985
0.41593810819779786,0.5127295246409386
0.4286721173190444,0.5635184468893998
0.4431944782141969,0.6465681400534748
0.5956164974899204,0.6673869663084737
0.6718710219110665,0.7384140800055922
0.7568317488157322,0.8252572050245424
0.7605608156821546,0.8435239893669009
0.8505440651651942,0.9201419337984719
0.8566924815152444,0.8817359120881877
0.7976365961922663,1.0125495723761575
0.949150704819204,0.9565542662118421
0.9011532515579074,1.1775329970840973
0.993339366042251,1.0666898761724677
0.9589032229792704,1.231187486218214
1.0009811481010558,1.1678400029779987
1.064433883631697,1.1727308848647438
1.0885461402791108,1.183513287795437
1.028331641752943,1.2568700379233697
1.1805146842328231,1.3067098661684027
1.074663908954197,1.3383914531476115
1.128041548166199,1.328599082046189
1.1013011532530008,1.3349269372454864
1.1754332684985485,1.2873729686517748
1.0156889199477954,1.2510503463118317
1.0471788235036295,1.237945490819953
1.0101455446771048,1.3051669923812752
1.079446103171551,1.2453300193602546
0.9902226017734685,1.281824217563516
1.002252264922761,1.17234886853428
1.0182555140742393,1.2276703587068998
1.0460501633620567,1.1895499577931594
0.9877118457538583,1.176528962108207
0.9682659193730944,1.048642904420815
0.8352803381282394,1.1590093190366642
0.7774482140559514,1.0517742569217559
0.8736307088623031,1.1939732746015956
0.8070716714440372,1.0966358619468861
0.7605046965782447,0.9744979962262785
0.7392642569014921,0.9754233258248419
0.7629141893738076,0.9654206694970218
0.5921920198372329,0.8672748585939923
0.6541466667947777,0.8951453439689827
0.51275158548543,0.8812464311798784
0.5228343479565081,0.8228760211759104
0.5561815614521699,0.7992391870813833
0.44179201816334157,0.6549298268347779
0.4629026564974338,0.7060270517229285
0.42559367068339476,0.6341889166688232
0.3523798944714598,0.7041972653759474
0.3893690041779135,0.6447848410187311
0.3362150788274618,0.4961573503842216
0.35290999014825697,0.5076005687940432
0.2768286472656971,0.4598301261269955
0.2321454528858906,0.4291575310778579
0.22958139779499137,0.3412760886386935
0.3402681295612092,0.43276585327352424
0.2864911912712841,0.36395054429668594
0.09533747416353645,0.31353061876317917
0.10045739232705009,0.2487619839594517
0.18647493797113113,0.2826572318669734
0.11026970926639193,0.11141327455401327
0.03524970635927058,0.14375951147627403
0.08879667012567669,0.008155718932386355
0.022806764957593605,0.07433175749800189
0.04885921000112728,0.005078790756557865
0.096031691906769,0.05512751202644875
0.027523865508612112,0.005643992760309767
0.027411748530403596,-0.08397436117833357
-0.047832562835480576,-0.0509470160732159
-0.06737239036696249,-0.1263070458276494
-0.027781540065178634,-0.2114412577204908
-0.0392717318590155,-0.12489526295635628
-0.038211325819898334,-0.3251732509390618
-0.14115701447498796,-0.2858577885286229
-0.2150370753526786,-0.3307079219683043
-0.14004231022704752,-0.20451853998608577
-0.17724269447872865,-0.30558070469775384
-0.18145103396851495,-0.37823788033502387
-0.15310656432826464,-0.47438122783430176
-0.2687866433565276,-0.48383089624592857
-0.3847539872887483,-0.42007806178085344
-0.3069485910678371,-0.502367535230238
-0.4396961000619579,-0.6330263491350567
-0.4336119698434228,-0.5642204168889859
-0.3844146484036308,-0.7152661831039558
-0.502367527288272,-0.6790562150534258
-0.41951729716442554,-0.7294017821364931
-0.5858113544121637,-0.7821192220344623
-0.6306229257347444,-0.8423982262681409
-0.6178385022633728,-0.9158351981587685
-0.7064501655499241,-0.8640267881437352
-0.7240064493784893,-1.044910806082898
-0.8204076618740804,-1.0125481126381342
-0.7997707198512084,-0.99346172342886
-0.8542565287195685,-1.0179435541297277
-0.8082524897479256,-1.04327932998827
-0.8847604780221328,-1.0634561329059904
-0.8633392781215142,-1.2430458017935868
-0.9138077005792136,-1.2184820157339342
-0.9188370721500485,-1.120843347985735
-0.9408811046273545,-1.249109655972112
-1.123477727713055,-1.2483678349113594
-1.1194743775367335,-1.269187310534455
-1.0530611350930612,-1.226861047332456
-1.0378429114463268,-1.2624782712249083
-1.0008500431580662,-1.3490266497220735
-1.091914215835087,-1.3438212756139325
-1.1284687690889754,-1.2478205919187197
-1.118589477501029,-1.2604219888917225
-0.9701918109283619,-1.2641186123516124
-1.1975273349127404,-1.2585285033910956
-1.0645867059874468,-1.2111362141698025
-1.014469732742436,-1.209272938703516
-1.1721129882797598,-1.1572910569791126
-0.9464080846714229,-1.0972008169093908
-0.9811939386946263,-1.0316640391061092
-0.890974751610545,-1.148596684757147
-0.8611022959830086,-1.017977675337025
-0.9133208701088558,-0.8968681437242652
-0.831304393979051,-0.7797731091090725
-0.8130834106635639,-0.7530852521570287
-0.7219070352750427,-0.7160546813549273
-0.6492431579416905,-0.6010769817820012
-0.5314203566201262,-0.6376878588310113
-0.40083774806483863,-0.3962811865257299
-0.3856099110171006,-0.4092972318515784
-0.34453923296282485,-0.3326700925332099
-0.17978558734999434,-0.3748678625543375
-0.15878296094399133,-0.2895794543744874
-0.04409494747261627,-0.14872892672498725
-0.08641826856918358,-0.00706475893741302
0.12881050208129882,0.014315761783035612
0.1162372698037393,0.11925527095454116
0.29462263990601034,0.23403368734642244
0.24058179248822445,0.3810014242982832
0.30136856035720944,0.3739266278611578
0.47426232297573123,0.5061632498870395
0.5729007045304628,0.6719201302262865
0.5203314526707504,0.7142861395461555
0.642157851666256,0.7459201394802025
0.7196916920952757,0.830208793031375
0.6717836516637985,0.8749717597814266
0.8189862739864363,0.9391093222251433
0.8466151772740962,0.9674033676012646
0.9268449191362983,0.9855293567593642
0.975780148967837,1.040386860506595
0.96302953145249,1.0802779705988519
1.055700274397522,1.0622117817599057
1.058231899311714,1.1450595888791606
1.1315625696057043,1.2108894491653275
1.0746321936077765,1.2635291140296387
1.1012157550734087,1.1891183063699644
1.092071242579945,1.2468160691504633
1.0639067999229246,1.2374758556871497
1.0884334933900863,1.215867953300098
1.034090887496289,1.3279689198634204
1.1306108075483845,1.2636364433710092
1.050200511453857,1.1091748797430432
1.0192784499924945,1.1935773099655245
1.0700719476202847,1.1832400701813373
0.847909552559455,1.254996188573986
0.9976238034240585,1.081820311258727
0.9024396250441671,1.146438028207451
0.9000214836963892,1.0817265635387328
0.7260078528072508,1.0875667748760378
0.6778342590323564,1.0379970569021366
0.7209154814958438,1.0977233150428116
0.6248264970804779,0.8929432847039838
0.6341972809358954,0.8716064881561257
0.5969394817625646,0.9378030973995615
0.5765538734664525,0.8187522636616892
0.5005468813868734,0.6692999788901565
0.4490119750332661,0.6943070175504579
0.4144373471548092,0.5861455849163613
0.37184399080296054,0.6689800122770974
0.33592044094405454,0.5457511726963442
0.277249623159873,0.501019561819639
0.27021589439389615,0.5270987233297058
0.288558793714195,0.4605623774718262
0.32204521915812345,0.38122405525077135
0.13715346569003647,0.3415984949060446
0.1966469762032063,0.3185890929112458
0.10613237759688823,0.25690151206375467
0.036549438452266075,0.09263806884866335
0.030622593825796837,0.12464893853379747
0.03393784364981065,0.11224056148315747
0.033000766438439626,0.10287160347218209
-0.01013008516225987,0.03787628374034534
-0.04634346197268047,0.03210675816524488
-0.006909167115956695,-0.0453775769831777
0.046880154990414896,-0.005430294994103274
-0.038105852350583946,-0.16752271233739843
-0.10989088390914518,-0.22593545693072817
-0.0700110211364964,-0.2561683792527357
-0.11128963685378977,-0.2695817767948471
-0.15709367653875864,-0.2701217987450152
-0.15751602081249938,-0.3065555958922405
-0.2427371258433544,-0.37588523128495294
-0.1900117503510495,-0.43968712923006426
-0.25027877139684496,-0.45514986813964853
-0.41659735355080124,-0.6564489596658256
-0.3583786712478961,-0.6291918244816244
-0.36391212098505965,-0.6771605602707662
-0.3580596567605258,-0.6590869339802333
-0.498749283760518,-0.7179991984861769
-0.5837721986068222,-0.7812214986424161
-0.5074443013512355,-0.8557444740293837
-0.6320183940590085,-0.9307056691549419
-0.7477988303990328,-1.0108402324589167
-0.69010353767615,-0.9401892996314475
-0.7271713650099586,-1.0255488094061036
-0.8153427924467969,-1.0964581230165322
-0.9022441768306774,-1.121364032526913
-0.8323618206646282,-1.1631508684617946
-1.0174879209921186,-1.2446200596305135
-1.0392170507026797,-1.223292611597358
-1.0302299635313183,-1.1368226435627093
-1.0731060711958733,-1.2593182301666472
-1.0836286776552218,-1.3870977151175006
-1.0813122829087696,-1.233304894943544
-1.06446555123566,-1.2842364833763287
-1.046515311643839,-1.3513062465577241
-1.0494192355866294,-1.3015479384648836
-0.9798917544323493,-1.25888035161046
-1.1105283550614062,-1.1722789978221606
-1.0869742479666442,-1.211554553853491
-1.0400203370556977,-1.2469454146313461
-0.966223966549814,-1.1199408393996197
-0.9662707703903362,-1.116363178193472
-0.8865962837362312,-0.9938438749868757
-0.794798700404471,-0.9368903062397114
-0.8053015715471066,-0.8449709375180025
-0.8007394124828382,-0.834529798194531
-0.6699694234711893,-0.7497422632554152
-0.5758964349289015,-0.6607648170369445
-0.5301271628072523,-0.5594842604299143
-0.34604453353651743,-0.3505220526917782
-0.2817987120502608,-0.19812243078592837
-0.2244248742138993,-0.26275917860232123
-0.13316575361826302,-0.08335268681579733
-0.04246500105096501,-0.024911602745321736
-0.017098644825029027,0.14726484312245897
0.1394316469548355,0.20130305734506937
0.27976871375689333,0.27743724044476525
0.3691536949240956,0.3881210182718277
0.4233090580544177,0.4080500020001351
0.4559824326229422,0.5927134031124169
0.5733728476402908,0.6969120763403225
0.6133031008980762,0.7014434639977766
0.8109497990952514,0.8481861428485823
0.7874983262743259,0.8892180109520788
0.8532128591775328,1.0140346963078946
0.9068432948941645,1.0358644698019241
1.0249568201261203,1.1039065661998941
1.0368856950794294,1.2034734327902006
1.065327651019714,1.1754514734880663
1.0227062408017107,1.2156420706219657
1.19684861310624,1.2975261274510161
1.0830143384923963,1.2196389475178668
1.1601630506687617,1.3008432749588126
1.107772031139871,1.270232051695644
1.1036229318891884,1.2765188062516055
1.065563264153185,1.3258524761821566
1.00112814407236,1.2406669380064372
0.9853906373001182,1.2276626709269205
0.858614746557385,1.1552297792905133
0.9531834842551965,1.2428862527199347
0.8989866424365345,1.181333502727371
0.8529075507250657,1.0195843514496292
0.759997812606442,1.011906189729155
0.7448867092879284,0.9898505795845115
0.6921652864878831,0.9221668277178209
0.5467527043986234,0.8550797533746427
0.5638511823363013,0.8375939312439401
0.470883836259213,0.7735978707072853
0.6048550678196105,0.6831707954000736
0.37036366895200495,0.5856620168405694
0.3483394719964281,0.5203907072079512
0.26857067125462275,0.6031664747983343
0.2953083659535665,0.4631102476166999
0.26210483188528644,0.37169492764472856
0.1902183320338058,0.356435684469074
0.21258999126333183,0.24821498005869588
0.035925114893374785,0.23674312726285898
0.20029329719012418,0.23457063381671686
0.048181534163103404,0.18384212503540343
0.07319302188009802,0.022012099543364805
0.06220861724752934,0.07407431829552721
0.055468469389920755,-0.07910792988757945
-0.0010307144942788907,0.03987738797165963
0.023778857950648213,-0.08962112111268669
-0.05774712495830575,-0.15328694908125162
-0.06417634006961942,-0.2294625402975154
-0.16765703492117592,-0.3591662281460546
-0.14952223171420123,-0.340816456827445
-0.27319370252750785,-0.30308908288168784
-0.24434012166252012,-0.3597507941993712
-0.2087706438918439,-0.47560451849882873
-0.3275493916515007,-0.5097816016455832
-0.4360702961679201,-0.48088481231494334
-0.4849663717831451,-0.6505693832802005
-0.4243735783136313,-0.6793882396804092
-0.5912329974144239,-0.786637575658268
-0.5201384928026587,-0.7927059999832616
-0.6027961965934007,-0.9588144187314079
-0.6823168765963465,-0.9314285138439772
-0.6922824809901684,-0.9369561480403341
-0.7822557671254162,-0.9996902443937803
-0.7746580592089704,-1.088807073520881
-0.8636894096010751,-1.1319699173654374
-0.9678627719349235,-1.1845577123790239
-1.0233702003146863,-1.1913402055273385
-1.0121883616634095,-1.3069961818680118
-1.0839433711048532,-1.1984010350695307
-1.0630652984760793,-1.304865173049216
-1.0988399111121563,-1.2392124568612195
-1.0894712143837557,-1.365239325473221
-1.1243117975525436,-1.1973489642280277
-1.0974765325055271,-1.3171013412502506
-1.0374818655852995,-1.277558449752187
-1.0180135512348318,-1.2170283639302586
-0.9485741269033213,-1.166064975691455
-0.9835784504073986,-1.172293135229972
-0.9069252179802879,-0.9129616700282914
-0.6982894157196413,-0.990542868129521
-0.819679202713581,-0.8163338890468778
-0.6417759942953272,-0.7030207643456826
-0.6638683023446099,-0.6018223270580264
-0.4566610341875361,-0.5644849937182866
-0.43049505775948754,-0.47913478389533654
-0.3392605271522016,-0.35074367928890837
-0.17825098749065355,-0.1785746272713293
-0.1368924833544391,-0.1372318339515181
0.12113941469099263,0.0571350587021172
0.15860312238518723,0.11446687501368402
0.30084058668833613,0.3727173776224147
0.32478124748650633,0.3803141818027803
0.45910832074670277,0.5204194516534728
0.566665484336388,0.6870826021399455
0.6336753833238793,0.8669746465628078
0.7979429289059016,0.8692202618862906
0.852191236315776,0.9091366510837984
0.8365836038963022,0.9425503914466407
0.9970096251762671,1.1149123277992625
1.0673144727790058,1.174649360222307
1.016504901060356,1.2489664990724114
1.1061744238609936,1.2248232897360187
1.04645422648055,1.2827775209402632
1.1389002152523282,1.2745869573816877
1.0310783164653934,1.3197264718152182
1.0919845966054393,1.295619214832819
1.111069053378203,1.2745653157234966
1.0726518078726375,1.1477478194923132
0.9431273333568663,1.205839844657888
1.0340809323201527,1.1599545583802047
0.8565364476855357,1.2250040346683044
0.9047098762386908,1.1567748929193507
0.7943142218259902,1.021832314557352
0.7940015195788032,0.8902533971239979
0.7352170795597173,0.9929106243175001
0.6783590341562715,0.7898610780010283
0.5429681147990093,0.7497630888228718
0.45763021510728313,0.7145514064163156
0.40505274734267055,0.6555096396307428
0.4034635668832024,0.6554727189637364
0.3404839974839062,0.4744886433892196
0.2655940542283262,0.45066440984150613
0.16797568207428598,0.46507518036784434
0.19875739262860273,0.2545739235291265
0.21178324017579236,0.28852367609110297
0.07874752739464105,0.2881367656326779
0.0594127705167468,0.22503020389618097
0.08885683819737712,0.11720720078909673
0.06548979075377778,0.08980264623081718
0.007305682117471242,-0.033471000117395185
-0.014299081802091504,-0.04856760721659821
-0.06505416865499734,-0.11348476737751689
-0.0356770498541479,-0.20205551040543754
-0.10992483277390014,-0.12517523964728153
-0.1252506210168761,-0.3910033712146799
-0.2678705207788228,-0.3482020645837567
-0.2399638098520704,-0.4166889334072466
-0.2281942467497885,-0.512001088265188
-0.3222795232712817,-0.5458127839687442
-0.41323473310538944,-0.5680679498448873
-0.4358086382796247,-0.6242405080204477
-0.4983738065123764,-0.8115756947230154
-0.564382318531298,-0.9007090719142351
-0.6344729476664827,-0.8063717826516517
-0.7002272416623351,-1.0430930852554723
-0.8744954791939091,-1.0093411970704735
-0.8750356076633906,-1.0718214426162513
-0.8807459900258559,-1.174560787702757
-0.8989896618416499,-1.1320498973463098
-1.0440562688939297,-1.181656765496322
-0.9055989016682261,-1.1688591772987076
-1.0325610125942277,-1.3369474015093472
-1.0850247467515324,-1.2458928496883337
-1.0643952006402622,-1.348742171042673
-1.0317676743642206,-1.2424968355370622
-1.0430264355968277,-1.3122320347152954
-1.112563532691476,-1.2391239944101238
-1.0329815980513273,-1.1347753224169563
-1.0018198507593914,-1.1086876300195196
-0.9304502871144044,-1.0511211112605838
-0.8688674230389364,-0.9241844007495528
-0.7900800564620003,-0.8454351285033158
-0.6996182527565088,-0.7634778148414754
-0.49805009638945125,-0.7266022126596205
-0.48227062322823716,-0.5610737532443825
-0.3733699300991922,-0.33747517132466753
-0.24455227788996936,-0.3406409214171937
-0.06935742362741902,-0.10318197313401453
-0.03363474663572405,0.044514950149282285
0.07557050199139688,0.18354363035083207
0.2227399778229946,0.3476258837158939
0.4145791479231915,0.39132267976811086
0.43363843506187416,0.602570392702412
0.5993342298771083,0.6354298927487732
0.7214950651579262,0.8166844385802038
0.8217662928980196,0.8841607918782555
0.9421810090250561,0.8923181866498735
0.9995491266330548,1.0634361852846141
0.9639137447192583,1.2113767802618445
1.0023650453203172,1.1995435775444774
0.9466909497533238,1.1866811825128114
1.1243569700968952,1.220039424919943
1.1236289836074407,1.3131231794118188
1.0274407028280808,1.221703758220125
1.0121428430081578,1.3205891818214521
1.0374054091276517,1.3171415504696988
1.0013091090512325,1.1530023676490357
0.9843627287682237,1.1508111840184716
0.9024208649027974,1.191823981980364
0.8391703948236063,1.0887292739087728
0.8062075881844893,1.0507974001216167
0.726185461750852,1.03478532025232
0.554336805256928,0.8509482051858543
0.5877133472406051,0.8553826593031177
0.5147329496733886,0.7825160634523645
0.4794364235000033,0.7714523882225213
0.45087990212383144,0.5114875213778931
0.3071611934968429,0.45904586736395203
0.34323920051470236,0.5065664807628101
0.21703289569590375,0.264268115147294
0.22816064367441066,0.28892776519713986
0.08649709936805075,0.2603989364307508
0.13196548205973915,0.3187664423830968
0.054670365678457705,0.1545005622050547
0.04741933306599277,0.10557297615496067
0.07695477777859763,-0.00716027619244707
-0.06873719911497148,-0.08848104698517924
-0.028375754731239322,-0.09203499597209
-0.12432928342202863,-0.17737147334405304
-0.003834871476494639,-0.25394385686044574
-0.1840462517111525,-0.3123392770376574
-0.2045884100331527,-0.38750457257719195
-0.2921874397341593,-0.5631704469590431
-0.2876143353361417,-0.5006376328899214
-0.43932317135727245,-0.6221250658921038
-0.5525366687770668,-0.6466723870292126
-0.39829434425389987,-0.7639516592984219
-0.5979729518605635,-0.8440473344171374
-0.6905154830879008,-0.9184215737035367
-0.6806767521880577,-1.0389836189872286
-0.8403389904190202,-1.0062317599250818
-0.8982419864349263,-1.0853713472985698
-0.9021380879153432,-1.157930984131081
-0.9594755732775889,-1.2037176172606376
-1.0242010565492372,-1.2753279939344893
-1.0347787651576636,-1.1330351080134184
-1.062752012982407,-1.1988985722886922
-1.086029456123011,-1.2840419134768914
-1.0824092276943384,-1.2902161641423664
-1.0557129212541834,-1.158700575912057
-0.9552511602839198,-1.1831411851715326
-1.0296861192255375,-1.0815315542213515
-0.960858748051242,-1.0792020919686862
-0.8257666113777085,-1.0467597603596612
-0.7476915687183566,-0.937158152812549
-0.7323131306889418,-0.8545611665827999
-0.5437378799598143,-0.705306676560691
-0.4858785957978917,-0.5390662994684393
-0.2666189511347075,-0.33299722836593115
-0.18172792209769045,-0.26158411235244555
-0.055396609333134214,0.003896088366824091
0.04374743786095937,0.1669234362713904
0.20395718177214994,0.2582958355006785
0.41033303042354174,0.4176729797956394
0.4789742585588969,0.5305931862777792
0.5366628784375832,0.6212975009218431
0.6861795747500412,0.8425746363228964
0.9101628798436646,0.8534888439697573
0.935468640339891,0.9875314819249291
1.023639447941636,1.0702965589567919
1.0635700284575222,1.1636353855343788
1.1559694819367954,1.192365734429458
1.1175357722566281,1.2438565005666566
1.2336667009941842,1.2880823963442143
1.1274636997077347,1.1804582959000982
1.0517208325314098,1.3754050779371394
1.0640074732397942,1.2199733290610848
1.049956506675437,1.191951879864414
0.9286713811861803,1.1705919700270684
0.8619016229442796,1.1600827262785547
0.7756281695488828,1.1313217134924047
0.6909362718460396,0.8860426708900592
0.6779967430798252,0.9335970500770867
0.6074333681405333,0.773866928967831
0.6365362214268393,0.6690641715230051
0.44639099538533245,0.6297781210521834
0.5036904831134041,0.5554049852563646
0.290877796988265,0.5931434866687376
0.25806301091161116,0.4287642324283524
0.19326135594329685,0.3862169262844608
0.1810992862478596,0.2729959229758314
0.07244616583797361,0.1950529590826698
-0.04239583414852707,0.210188250185036
0.03538710931177931,0.103045396484254
-0.08935049003129275,0.08611037337843748
0.006715770406548409,-0.07283190725853761
-0.09434879998132845,-0.18719959719745582
-0.11759038393027382,-0.2259642860685843
-0.1258089405003457,-0.26470683358241814
-0.19378450935775632,-0.2596862162843087
-0.2790331168867143,-0.38281593560750893
-0.26192617185415457,-0.5339480359595346
-0.404599340673085,-0.5856831907714817
-0.46791153534826513,-0.6741990068114391
-0.5183071321655575,-0.7342122819494907
-0.1610025520332325,-0.9727418258636029
-0.6321978282575106,-0.8765406722407801
-0.7513258935299311,-1.045668456007492
-0.7704973181750396,-1.1151070510241237
-0.9379102470858336,-1.1507754898051388
-0.842553195792325,-1.1679614233115463
-1.0306165842722694,-1.178649392195166
-1.0279401230663274,-1.2587920886759907
-1.0423949465356497,-1.2647042819804495
-1.1498453041659829,-1.2050141270341825
-1.1266480375511205,-1.2871957249306516
-1.1495624671230698,-1.2221627998260645
-1.056417995277411,-1.252809035895268
-1.0793127151879902,-1.1302999498951383
-0.9127462300573534,-1.1561634303378916
-0.8209776914009482,-1.0684426973333534
-0.8189632016121745,-0.8552620761526605
-0.6328203230603078,-0.7444591859146692
-0.49425472565198747,-0.6003706873277664
-0.43483007190845696,-0.49683644521043796
-0.3121027382739341,-0.22478748538744556
-0.1252668130449835,-0.16854565585136122
0.12987151728468474,0.0430648703345758
0.15341213646150612,0.1360059732259437
0.3341552543013962,0.3550812993584721
0.4267652107577169,0.4986402558447553
0.5642764301951628,0.5652758194230089
0.6601256753074463,0.7726363037789965
0.8261072175502587,1.0583906231893185
0.9308846728808519,1.0733272569766328
0.9672552383865741,1.1181255825402638
1.092175050266516,1.1998535545848066
1.0697922113399163,1.1843188558359328
1.058001749568865,1.366429810343389
1.0495248857105879,1.2707452385618914
1.1013001993188376,1.2700405995346637
1.0147553185056917,1.1867529298352426
1.05842448890714,1.2873090592235412
0.942686481922831,1.2315097129688004
0.8334771831489756,1.1214777880461664
0.8130376710682579,0.9921911676828855
0.675009732319082,0.9850648244627875
0.6684565157148228,0.9621308734150588
0.6385759789215041,0.8609250781417491
0.503846539717268,0.7648954917167569
0.37934228782019574,0.6637041716684154
0.38603854147555944,0.5995793752258824
0.26700060153037514,0.5816617747293092
0.17011132335924922,0.46800421307596235
0.27163250306979475,0.3549361918759144
0.10115912154277305,0.18852822107342235
0.10548972770128573,0.18822227510480422
-0.006692586761817623,0.06482041762695424
-0.08622222732613401,-0.05183884156176599
0.009171305711464711,0.03360714974533864
-0.084372985112218,-0.17372555200487108
-0.14874486313372542,-0.24557893007631934
-0.059551427159571374,-0.32963865422970384
-0.17783109822302406,-0.3662716166523299
-0.2845165153565598,-0.518099678335546
-0.2305103266062194,-0.4663372118539874
-0.3199793350009977,-0.635412893665037
-0.49186267089493135,-0.6924454186722031
-0.5213397527962381,-0.7448521636538017
-0.5456534236802886,-0.7727259555914647
-0.5794229011862412,-0.9602910248433683
-0.6907228973916946,-0.9822976476242167
-0.8549333691211511,-1.0695063482592417
-0.904279425146774,-1.2376401938212604
-0.9490509755392873,-1.224296197098524
-0.9301145865519009,-1.287773868373476
-1.0100251330262364,-1.2665452454157178
-1.1407818904879177,-1.3642261756559035
-1.1408023337120787,-1.2830268622029388
-1.0869411644570997,-1.1956822337241968
-1.0949730767007426,-1.2052666875398266
-1.0338652764542802,-1.148975388163259
-0.8564806026723563,-0.9956452872384131
-0.805210866133538,-0.8322964983250136
-0.6664780797737792,-0.727799289051112
-0.6003898074520275,-0.7088858590330243
-0.4652935600914651,-0.548831527087758
-0.3701703947782929,-0.44046299548806067
-0.19932903766654883,-0.2026987339944496
0.051414657324262314,-0.006464498477304091
0.06702944670378666,0.13849702288272403
0.3223528902528262,0.3108079576523557
0.4409005916248899,0.5600155415700605
0.6582011724545671,0.7024402528717631
0.6761862608498123,0.7197971996056545
0.7632381352610416,0.9705897160461949
0.927133381597229,1.091511004560018
0.9858415822599396,1.2130767658551147
0.9853188022793824,1.1931729225728023
1.1322652341782962,1.2648200220566062
1.0183830990956504,1.3298169273916254
1.0538144471249051,1.3217207932122845
1.0183305420860782,1.2957278866580448
1.0698873849697288,1.3152069894028107
0.9302533554439152,1.3302410021046909
0.8653216445456877,1.0991431289681424
0.7527593551514036,1.1523077206614563
0.6921993843009868,1.0588192463176525
0.6261425056776249,0.9526922183975652
0.6688289301932399,0.8497161480047516
0.4087910176138231,0.7142662229681445
0.4539599914630683,0.6541599221566284
0.3568184893367034,0.583949926072408
0.249652233262853,0.5236653388284976
0.22669453899153555,0.4094568206082598
0.14933645371567225,0.3560321544848173
0.19390561025519476,0.11920498543730441
0.05035497936897517,0.1826422448803382
0.0014811085110691194,-0.008946637725924092
0.013765831487823935,-0.00762810029327987
-0.005105211509591562,-0.047925813092814726
-0.12524253607892363,-0.12780123061553098
-0.19084570513608284,-0.2266215085919656
-0.09717949868802638,-0.2989388636610798
-0.28551548641294044,-0.39408539378455143
-0.2400757895258025,-0.4783869859948639
-0.3423778642334821,-0.6258792783196767
-0.4445774540715232,-0.6625257804466522
-0.5111563494697575,-0.6830726556673747
-0.5963714166204511,-0.8710806791351481
-0.6766334689436269,-0.8842284958860803
-0.7991600947977429,-1.0157888408310154
-0.7888798502726383,-1.1059923207578486
-0.9109708863950366,-1.2157264663293057
-0.954039571902319,-1.1930539970790273
-1.1145772400564624,-1.163869276783
-1.0293664560898037,-1.2473793921179488
-1.1051793267659933,-1.34462930568923
-1.0667791801469475,-1.256831949534766
-1.036713280459395,-1.1685087057932317
-1.068679728745066,-1.0437430203229605
-1.0150407371349717,-1.0329494033019126
-0.8240936352016657,-1.0065433304147338
-0.8337228891409622,-0.8121031987038156
-0.6009956184743946,-0.6983027614136991
-0.4480187976645613,-0.504788236956814
-0.37993092706607207,-0.42829361704155455
-0.1805304764554127,-0.1601577914836064
-0.009041888121039711,0.02991471927757619
0.17137531712657428,0.08694141795191428
0.2554489849100885,0.34540945861675054
0.3823592287419564,0.3997313953745665
0.5959170524992561,0.6045385807867378
0.759859245534725,0.7738136807886926
0.7756593777960444,0.9956181705247784
0.9277022865931184,1.1415565709086484
0.9898605850548328,1.1694117652525842
1.160029348381865,1.1226402660576158
1.1308484383937745,1.2756087119382247
1.1940025723970908,1.2715503539566468
1.0973093001841792,1.2375505248435883
0.9718309579162521,1.2448314122234392
0.9403676676355319,1.2967783158669501
0.9139652712915107,1.2306786980570303
0.9399696662459285,1.0637689622811273
0.7670286163134293,1.0363587832496615
0.6825111518238269,0.8936219230079773
0.6665180940269729,0.9122101782848479
0.5364538529907622,0.8170638483263037
0.41734019650970194,0.7693510057309179
0.3890469185572483,0.6902298057568653
0.3041700986767772,0.4518665446401901
0.2842129048008086,0.34407967122027805
0.09252337307879052,0.32281794704814426
0.1607979121443487,0.23341432619248476
0.08331005708850522,0.14742241024968017
0.12902762148639943,0.013651624732279682
-0.029477873709443835,-0.0008689377785556611
-0.1030360361601776,-0.05258040704990074
-0.16599541668640228,-0.20295860070914154
-0.1989720602248077,-0.30841559989542683
-0.2094121230898553,-0.20543027800394095
-0.28900609192627497,-0.4694652788431469
-0.29730476868859673,-0.6258308352834867
-0.3369177275386681,-0.5661979305709682
-0.5453194724484646,-0.7449564784793067
-0.5155804866243633,-0.7992189726975981
-0.6942627656442563,-0.8801416381241962
-0.7630270747574208,-0.9770973470933145
-0.820865472100445,-1.0951544418012968
-0.9354691103663333,-1.2371669084101544
-0.9379119091684864,-1.2127771082928458
-1.0280471308219623,-1.3468590238710283
-1.0743980607337926,-1.3207659371916902
-1.1025839853753328,-1.2421543902424883
-1.1129082786336806,-1.2244850028983072
-1.0428950445810645,-1.151797605780973
-1.0581698903286438,-1.135308785353808
-0.9778655647420662,-1.0577784579402971
-0.8516408783425883,-0.9472132321572387
-0.739854809269283,-0.8083333808020032
-0.6423931930052015,-0.6778090158822522
-0.48864810614020476,-0.4778230650589595
-0.2676899061126535,-0.3486893116524858
-0.11564943218005776,-0.16196496972074811
-0.04811029978848565,0.078430589016589
0.2979881161283283,0.14232158290562333
0.4143982481707306,0.5031046602757645
0.5140415982129759,0.5410892858397034
0.6001379793764618,0.7530756501714925
0.7392475006157582,0.849285933004408
0.9021852331970229,1.066265170059991
1.0941216608588171,1.1297070760840755
1.073315017949722,1.1357408187158233
1.1471706926950023,1.1889266846875008
1.1019015161101244,1.1442423508158859
1.0692198081908144,1.2873335375082198
1.075523788088439,1.2265481428199294
1.0279126074350606,1.3017424201243892
0.9709001128502363,1.2359286247890853
0.8375277083977806,1.143870407309789
0.73162851708849,1.0336960921823466
0.6734297026622733,0.9680584813901368
0.6184215790422216,0.9178261025087961
0.6037396662920527,0.7846561624750409
0.3570375760461699,0.7201981725452626
0.2845498102421493,0.6359938947088968
0.2826457749277224,0.4549034601181325
0.20063791937798367,0.4089131786347704
0.07388261977458563,0.36592727080161924
0.14183093076351438,0.17835259839669618
0.059554373271231684,0.08005910654839238
0.10289176479824147,-0.0027100693459747374
0.09801315044404438,-0.14810634328182692
0.0038566392926794035,-0.09434833493527114
-0.060343000004556,-0.13300115802518653
-0.1446276527570386,-0.2289603014287001
-0.25123387316948276,-0.4054921638116364
-0.2994124327281119,-0.5447721373148122
-0.4283694743378535,-0.5987867534234782
-0.45051715523918556,-0.6820771871606056
-0.4570354904099512,-0.6730550241579561
-0.690014123852849,-0.8581490223876638
-0.776316877933952,-0.9088211125337853
-0.7568253391977401,-1.1023294073957002
-0.8488256968484886,-1.1691948545039943
-0.8433307165534207,-1.330626689768463
-0.9278375823708948,-1.2331040940255622
-1.0814928564265973,-1.2165774249974974
-1.0613793095920339,-1.320224017689785
-1.0230671951502757,-1.2652345962516893
-1.0305283397126905,-1.2041494322321633
-0.9837019064440498,-1.2278137459361487
-1.053154928734816,-1.1713176677673842
-0.7818289652470509,-1.071464064886331
-0.7629933195079629,-0.8793922028032461
-0.6831888159527356,-0.6617915526892575
-0.49620623725370017,-0.5484892934949385
-0.3543648307507781,-0.40040691508721177
-0.1401269406120971,-0.2038896950008022
0.08039973881527222,0.06772226845300773
0.25592256770087224,0.2560288287863471
0.4506797733423219,0.39060089430707584
0.5661284973772609,0.5630273528079976
0.6967998387941265,0.7726954859608157
0.8522711647157,0.9748496860031768
0.8615505269314613,0.9883248153794891
1.0400693801820395,1.0762010212939483
1.0392737086545045,1.238277221474659
1.0587482678326996,1.2587499994729392
1.118809012560037,1.3026374904343383
1.0746100289418894,1.3850927688837948
1.097776195243235,1.3111508269152377
1.117322732867099,1.2122377849573467
0.9142843947627054,1.1386740409420804
0.877565099790255,1.0904177769707268
0.788224870224498,1.0581473400510693
0.6399835001501043,0.9372605880274602
0.5504007832505208,0.8662788421966395
0.4033908470046916,0.7952391616138941
0.3667679334414623,0.6092520442514952
0.33557783826442805,0.5337876855617616
0.3701546699488738,0.4180981318251639
0.18740968001054242,0.39207095638855843
0.14478127044099195,0.20029528951501524
0.07806335990585606,0.17917067926489108
-0.08302182871269849,-0.006399672839085976
-0.13244095192285535,-0.09152472542591822
-0.09085385968007345,-0.0828154639876488
-0.09216990846520143,-0.10730291802092554
-0.09323696135692912,-0.3351882993720033
-0.18311109369915013,-0.3085713754492003
-0.29142045915471365,-0.3719570695184232
-0.3688420021634403,-0.5525116776946377
-0.3847848047419624,-0.6074640505505989
-0.5071201534596228,-0.7696366627965906
-0.6084402445863096,-0.9002425274326267
-0.6703236142577536,-0.9699648178432728
-0.7410580288515618,-0.9388473728080692
-0.856931781409057,-1.1295094302678936
-0.8583972051255757,-1.1192042097148778
-1.0424948369140135,-1.266770569725644
-1.019178921946707,-1.3143776300939047
-1.0761382853186712,-1.2200570972115286
-1.1294748392863905,-1.3373775188188701
-0.967719749515729,-1.2104389348357385
-1.0232651170380955,-1.2891008712356022
-0.9093002312724516,-1.1329445903279203
-0.8208575692942661,-0.9691345675355125
-0.8562250070644424,-0.8309060666944642
-0.6451360911293701,-0.717587148014119
-0.4817011328591511,-0.5180398881316949
-0.3739210005783273,-0.3513998392123282
-0.16007221438953212,-0.1722537651779996
0.1106057551871625,0.08557766894668081
0.23453835400633805,0.3264503338268905
0.44640601087366616,0.28906642870106436
0.6004727622021057,0.6176864606961114
0.7329027626537441,0.719666760545357
0.77181753489624,0.9484676524730529
1.0093828809674619,0.9577347576788432
0.8673155928593747,1.0872949045875413
1.0685373683010952,1.1870460217062566
0.993139772566485,1.1876176421169873
1.0303094796973995,1.2270494856926504
1.0294571307808318,1.2838115906778496
0.9657308625456519,1.261248034965636
1.0445577725528121,1.256078699149791
0.9011388409978099,1.141910477397691
0.8934990806188168,1.0892785309401318
0.7328456634654263,0.9635380256060885
0.6869935326044532,0.949647654558853
0.5584785046818413,0.8050134037693911
0.41448092988234864,0.7402591069083128
0.32247684939367655,0.6176487517116641
0.3374288298358235,0.4410632759537141
0.1756590859015199,0.4575694273203418
0.2150301568058749,0.22355672511655872
0.13694030902599041,0.2733273114749487
-0.012185074236371607,0.12636684362676223
0.1524405274780567,0.06270105132639364
-0.061800457659058866,-0.07189386784993126
-0.12855591994325266,-0.12406230627247121
-0.1619694280196966,-0.2722126201420385
-0.0644865146940113,-0.3612272154243465
-0.160601824297865,-0.3677195294580163
-0.23769884118370815,-0.4367727299222661
-0.37059496408575665,-0.6049975827318453
-0.40537588480933034,-0.7478062347966348
-0.5213491313972264,-0.7723575461457838
-0.5644369213685565,-0.8854480120384078
-0.6765303297495242,-0.9314436515036633
-0.8257582416708423,-1.087390042250724
-0.9028765504862445,-1.1308454051805688
-0.9368594486500101,-1.1668822513943402
-1.0821239409376322,-1.331006060325985
-1.0680493509883437,-1.3068107549774475
-1.1198047803077111,-1.290288491204004
-1.0870693791031085,-1.2909116895047896
-1.0485742168741248,-1.2033804988333086
-0.9665876074421591,-1.2263895396543736
-0.9131588271472653,-1.0718135034304743
-0.7737586638011045,-0.847920584493715
-0.6462333963966469,-0.7458294589339921
-0.45491098939568314,-0.6474018062136019
-0.45334863729033337,-0.37728118043923003
-0.2787964770831359,-0.17995317692793658
0.01060746992577221,0.04650532305909986
0.13467142746724448,0.17414428680260308
0.44087311300195464,0.4247569711143424
0.4884569774207121,0.5581012690078523
0.5725719728075263,0.7166646856335216
0.8118370469096545,0.8536013277000462
0.9394443387285526,0.9679996171611785
0.918143881474923,1.0673114186931743
0.9818788987077207,1.2312021553781691
1.070662012952655,1.2438211696574384
1.0529732265677416,1.4162091059846384
1.0989380625688732,1.387261548686004
0.968141687007125,1.1748540808506325
0.9621145678097955,1.1924201741464038
0.9081819750515209,1.2080866764052998
0.8749351703044836,1.066987082151647
0.7618732605706509,0.9436499900746633
0.6575292964387258,0.9312935387960574
0.5862311952408941,0.8824178706454163
0.5475843545092056,0.6876111699631066
0.4117567648654054,0.6240566056707668
0.3861056102599636,0.41693438792407367
0.2504197438526918,0.41503609650911055
0.18475179393897753,0.24753338973959801
0.07482376913471467,0.25495421927811207
0.19941351168053922,0.06678325332889272
0.04132978810692878,-0.015814782676341732
0.025016910997198306,-0.11443416276695491
-0.08806968168859106,-0.08039183321605263
-0.12248919246764983,-0.1750790992581177
-0.16152555540198849,-0.2708726017672979
-0.22264474173388074,-0.3531715912125252
-0.28043640403088416,-0.4809573929448843
-0.2996022849231875,-0.5373724438508682
-0.35362060159206044,-0.6987101216379324
-0.5018541289581294,-0.7481241951897551
-0.6757616559760181,-0.8149359280932198
-0.749266733847095,-0.944476676289109
-0.8418013594998563,-0.9443610399463729
-0.9472591744850007,-1.1206010157986472
-0.9175803665284146,-1.151091162781098
-1.048536136081413,-1.2255290059431365
-0.9551455135844662,-1.328839437443155
-1.1149800497031856,-1.2627612782641189
-0.9935230716784833,-1.3063057191222076
-1.0672308180916252,-1.2534033635333737
-0.9998573585655681,-1.1137253313069184
-0.9247606674822032,-1.011396262640031
-0.8792915359743636,-0.9629390297853587
-0.7037034968458215,-0.7118012235181256
-0.6229714433951125,-0.6407394745059067
-0.40716003565159065,-0.3629384829044129
-0.22610054285970574,-0.25999299701535966
-0.05471867180683811,-0.15130219169451664
0.10727685709070803,0.1877195518057616
0.23509877152127465,0.35048198567216277
0.3933748807619712,0.4025801348875808
0.5462712536393276,0.6861106493191803
0.7765026846248992,0.8513766030860804
0.8977218350803363,0.9333490108975874
0.9563415031247576,1.0043991478771117
1.0572813982277762,1.1700536499195515
1.0683522820058602,1.2902037312180246
1.1394581814424942,1.2044967457010143
1.0978801736022048,1.217696489652239
1.1481831334615298,1.3807879259116567
1.039644150398924,1.2291154088447758
0.9368695029413296,1.2233870965148803
0.8361179660537302,1.1072799831276439
0.8004880734772529,0.9574798770854946
0.8121467899172581,1.0164064004523854
0.5896432715929181,0.8644336158068789
0.48718168404748013,0.7429287305443203
0.4765826237666914,0.7395395445551717
0.3971361876470281,0.565401777029236
0.2930930067137851,0.49208215053060916
0.26869644562583794,0.30008712319280206
0.1989209115269096,0.23079427421424614
0.1844923978956829,0.21059942604185117
0.004830373699247208,0.15610174299027393
-0.02821589354889012,0.02142837051074266
0.001356924666066274,-0.13180668541719398
-0.09962914003999633,-0.2547155621609982
-0.1585602190509768,-0.28409523422523286
-0.2028965713705916,-0.40177227848821573
-0.3337328598756245,-0.37807195254628073
-0.2628409180460034,-0.5392345796707141
-0.39515659225468697,-0.5752283852954099
-0.4762379443527412,-0.6774486990633043
-0.5908502816167169,-0.8932113183014033
-0.5832338865334135,-0.9192972502382946
-0.8336483057156885,-1.0339290340727507
-0.8496410623982149,-1.0350290721796085
-0.8861514302349199,-1.177942929181813
-0.9890192949558098,-1.190982956332106
-0.965587304021054,-1.277616445222015
-1.090871818456705,-1.3754370129432887
-1.0908403021239714,-1.4130389844399665
-1.043761117636426,-1.2246219407602559
-1.044298090501431,-1.14389145308203
-0.9918841213686904,-1.164253083174771
-0.8853030979347197,-1.0287844949080212
-0.8453129022399497,-0.8350784964528719
-0.7150376461034854,-0.77888872102274
-0.5737799577421109,-0.6357111356689641
-0.42460672468164695,-0.3656536135040008
-0.2648131268489746,-0.18310712130661977
-0.023558516196615024,0.03786372840870175
0.11757035829910928,0.18162604030368332
0.2635983637623862,0.4499332012045678
0.41179358913141373,0.5974234480186653
0.6749765278308915,0.6767344620005543
0.8156613995839229,0.820515391595608
0.8672223709647165,1.0539631809635681
0.9014626308725392,1.108655756270766
1.1201016838828564,1.2012985270248644
1.0844827487814268,1.2774068130895935
1.061757572857752,1.3206741176811163
1.356669788814218,1.3801258178253881
0.9785235496119624,1.2649950620178025
0.9379411281227672,1.2211939823905726
0.8779914285485149,1.0591831658890432
0.864293911361275,1.0610369911410162
0.8549046844668305,1.0822127397697392
0.7206565812538976,0.8514679065605122
0.5496579108446078,0.8347695354549209
0.5555013308552146,0.8031835585656062
0.4079769119879388,0.675437228392703
0.36481077195562267,0.5697839673992312
0.30520056103484594,0.524122129334855
0.25600272716389605,0.5090166827769615
0.14823536220288347,0.3107364013126095
0.15220370399174224,0.20510139936882052
0.076272887119664,0.1350641998309766
-0.06270758992990796,0.10698217249886519
-0.13989194812760763,-0.003961116543196176
-0.04383239420493074,-0.0751309812094246
-0.1109780652938264,-0.1990743066081528
-0.22760949388098173,-0.26887658858177554
-0.22263423677282645,-0.37246687034676207
-0.3272341181146131,-0.5040300194334743
-0.3852756367486418,-0.6813200620039388
-0.5638058496950624,-0.6848723066654833
-0.33991966952190666,-0.69594297349994
-0.6700558208859689,-0.8237874229692583
-0.5983013966500113,-0.9329347487248066
-0.7000542157274786,-1.0721510916133021
-0.9403703902660514,-1.0578202817189584
-0.9691457427575013,-1.2188005791202858
-1.040508205726743,-1.2540906124644036
-1.0977819387835581,-1.2507360468386697
-1.0875844491296307,-1.3172718761635809
-1.1715577970425028,-1.2307616621374995
-1.0887054960069162,-1.1891694223084193
-1.0233104033943732,-1.1664007359426212
-0.9486710484470361,-1.1018174164840955
-0.8066223092193785,-0.9735774177222768
-0.7298621688609311,-0.8352810616619804
-0.6494610396721141,-0.6932652275172005
-0.4992358176131953,-0.5088885339408896
-0.30507859087754535,-0.3086058616384051
-0.15953204283014868,-0.17061913973035922
-0.015591700940268224,0.08612906918218724
0.22817263942601818,0.2622180013141747
0.3922037639225451,0.45725957575871357
0.5892376764951517,0.5487199960815735
0.6696891789078409,0.7922438477008545
0.7957563553812279,0.8456279474530275
0.9966889268289072,1.0351121573015356
0.971539932778462,1.1175778944809105
1.1166565695560828,1.1791775373354474
1.1494787709376661,1.2502085346756744
1.0226920095960619,1.3255513564749033
1.0919819782522002,1.3217046125732033
1.0497600378520577,1.310647994884646
0.9757327480170991,1.2794459155284774
0.9183145202780338,1.235516447663242
0.865463462531848,1.140366684772633
0.8358939642803369,1.0413952679389915
0.668949827243523,0.9122141348966387
0.6661797403859208,0.8047053475776911
0.6094217750646113,0.7152299833786399
0.4079669152065677,0.707406700931533
0.33642958047706834,0.5154470484209689
0.35363675928012545,0.49279111538742837
0.23505928141321342,0.452664786710108
0.21084404205874696,0.38179438884160144
0.16133985664521397,0.14171796737493142
0.07019735668226607,0.2016601434132042
0.028798599992394956,0.08994100342083261
-0.029021057015566544,-0.021864410559902674
-0.10566058899964144,-0.10800505340282784
-0.08861995992979566,-0.2790986277819345
-0.08092280777460874,-0.28378749877450304
-0.2434408227348623,-0.37644024781133995
-0.24727430083607124,-0.3767365832513318
-0.35278030231860547,-0.5097566043983655
-0.39927182045655873,-0.6611159725837764
-0.48305264311559615,-0.6795992957914172
-0.5719988419572712,-0.8073674110590431
-0.6745901158304385,-0.95651210037702
-0.7279133091595045,-1.0034797304037721
-0.7912521370417445,-0.99295916463037
-0.8948824069365694,-1.1465104364232168
-1.0533311346418892,-1.2578251756629584
-0.9763657476571134,-1.3292644997937577
-1.0438153053124064,-1.3495587584666027
-1.0403304047315398,-1.2106566494147277
-1.07115037186312,-1.2878235920481542
-1.1006233041508051,-1.2600857659608888
-1.0527903777354426,-1.173588028312516
-0.9693025715892287,-1.11163439496716
-0.8701505804211327,-0.9809162739183217
-0.7373286419688426,-0.798278715677365
-0.6783757228779753,-0.7502329160861484
-0.535252918700599,-0.49074230998394625
-0.3118242105417731,-0.3530707686871498
-0.14591218978185244,-0.22703141845133928
0.023116017143381004,0.0479555865709016
0.17418974808459692,0.11336478320879567
0.2865955581027222,0.41915774557138963
0.43628582119935766,0.5270840433534977
0.6525122269865188,0.7229172779786541
0.770608034738053,0.8564186638450947
0.8846687816942927,0.9840690948701499
0.9783292191490978,1.1607842079634423
1.0743455692700066,1.2105289011786013
1.0831084420427646,1.2827638120303533
1.0659234207274766,1.2257772401352658
0.9008725121853745,0.9874600321728029
0.9964202924327297,1.1934259130402312
1.0263882254138703,1.2997819077367825
1.0051636059701463,1.2102259567997822
0.9197447624057471,1.1336637409259764
0.9011354199242122,1.09433552339495
0.7645649464260394,0.9935964270532011
0.6764893651174874,1.0204862667316532
0.6005468272507252,0.8521537431634023
0.4260288261617855,0.7662889623817248
0.41311170541060727,0.6924587437187402
0.3400407577455054,0.5670858447554058
0.3681938933256888,0.49175834637109594
0.2675411262435314,0.33962595593985045
0.23240295284642132,0.29801795405192466
0.08015720595128314,0.20439194392488647
0.004729852366433168,0.16370606334402626
0.03650698886524753,0.07783012523978625
-0.10034884674449432,-0.043298799745453455
0.04174369336966184,-0.1443643704180488
-0.06906685512501254,-0.18238202252953833
-0.16943636316011018,-0.24055789020649354
-0.2076116992539075,-0.32658947570653146
-0.24610510290141208,-0.4181120915435689
-0.3368444649457324,-0.45346033375268724
-0.28193810881842546,-0.5069648620714945
-0.4704329629216269,-0.6488178911255772
-0.5157369126348168,-0.7214144150381764
-0.6485190490848901,-0.8289512410273133
-0.7029262331073238,-0.9569807486643961
-0.7519512596961896,-1.0902173684248344
-0.8165239315999636,-1.007278754199458
-0.9114546998741266,-1.1484739529314447
-0.9230926739355502,-1.1785766898879197
-1.0334810240138688,-1.3108261420851441
-1.0340470007963105,-1.2585665261054075
-1.1628190669927427,-1.254273877197034
-1.1833186260450554,-1.1657558527453744
-1.000777970934231,-1.226732994871452
-1.0286583549048582,-1.2040770078130083
-1.0269745888828228,-1.2036227425932435
-1.3813462481402823,-1.0558861364799286
-0.8257083588370474,-0.8682360709394134
-0.7412163579446037,-0.6815109109942924
-0.5513346906130766,-0.7381686625505923
-0.3954140382930315,-0.4692125737156659
-0.2140832939480839,-0.19565136030083297
-0.14217406579872033,-0.11288592790963364
0.0332615315421786,0.02519424959438573
0.23532972763693474,0.21300731233714157
0.3569793274308465,0.3168207182342934
0.48581206433887847,0.5693054403786685
0.5878047019190363,0.687859740124551
0.8049129079770834,0.8612792642062244
0.8105457099630329,0.8733338246906821
0.8956513583261929,1.043487132761804
1.0098094659187564,1.2179763853465388
1.108253998591486,1.127833022589229
1.0423043481088918,1.2571884277235021
0.9494752254270161,1.251276424653715
0.9966814796957472,1.358137727862725
1.0727280802219201,1.21456227227058
1.0815664260090638,1.2964224115062009
0.9624400591457106,1.1994431375799035
0.8453315600666862,1.0847017949497926
0.842450694108405,0.9600174027288146
0.6464991296921192,1.0200236545974275
0.6474775709908781,0.9086705265447241
0.5770413310015822,0.7808693217739104
0.4740410774474948,0.7981145910484965
0.4514418406415522,0.6639244961455789
0.35346618843003924,0.5497771623502223
0.3482694217486435,0.4673388610500128
0.19232523767901824,0.33016250174010076
0.12696210783370862,0.34700188629063977
0.13559481718220276,0.3128466769838439
0.0222238422753899,0.23343515102833007
0.06856724003096516,0.024449805712417144
0.028357878642108415,0.022316398540212674
-0.05156678886987237,-0.018426320837068622
-0.15931647568164367,-0.13061829511501485
-0.12342447444806287,-0.15679637916964806
-0.14603847394093322,-0.19126302831888242
-0.13119715210509392,-0.3668412742179065
-0.27367955871517574,-0.404163465127479
-0.3394076961533233,-0.41301750849636154
-0.32940918281221726,-0.6588372290137583
-0.47261446277497887,-0.6624560071088745
-0.5883507238365742,-0.8078618597321455
-0.6407616762353515,-0.8555324539537259
-0.6920288229590026,-0.8790263198361469
-0.7002076430300779,-1.0031119022646529
-0.9073470548107578,-1.1079583486643545
-0.9156027623323212,-1.0504780648027632
-0.9526287550142991,-1.1781655331383138
-1.1287230862809938,-1.2396276693827104
-1.1008604423477883,-1.2935721796494621
-1.0546478619491717,-1.196848239416858
-1.1317815894633565,-1.2814628252928855
-1.0760129889471013,-1.1943467848070113
-1.1160462337335968,-1.1700508288108202
-1.0322564984990097,-1.223187493802129
-0.9282315961386531,-1.119354541251232
-0.8943794225659921,-0.9513724996691553
-0.8274380614633907,-0.9806512079822965
-0.6803675885211207,-0.8020508038966838
-0.6246903073255724,-0.652881943141357
-0.422167711022724,-0.4770419489917816
-0.31277814254984126,-0.40464950209004336
-0.16268588453699123,-0.14860785472866675
0.0024475979142500152,0.0254604660378153
0.14160538003021392,0.17702433702204234
0.269164369852452,0.32225479076680486
0.4217512482686042,0.4229214904659971
0.5225291164464856,0.6203117626970793
0.611794351710601,0.7096954386041794
0.8693370667185568,0.9072949356831496
0.8415100890358707,0.9521742995920541
0.9832416563327069,1.1730640878806933
1.087483487030625,1.0180171984548105
0.9742410233120247,1.2692368967274128
1.0239402585500086,1.268867295775906
1.1022145980527343,1.2682558633076089
1.054379267492565,1.2575074414237073
1.1840509458466213,1.2942855338409525
1.0311185742722995,1.264577139403121
1.0628650934328834,1.2707220935977865
0.9602558484539203,1.22270447426167
0.8450566478780573,0.9828439744863919
0.7104842652493472,1.0252775587810556
0.6771642746541249,1.0640873565325828
0.6909904663106288,0.8927566294928913
0.5822257557716242,0.8790230021008225
0.5117754852253379,0.6956279206702625
0.3766387163282347,0.7451763463623996
0.34484863994487386,0.524746554328807
0.26177826059191334,0.4575402287937254
0.3123549085028672,0.42647260092944905
0.19780551006740313,0.35235437181404766
0.19286175936888633,0.23645312454962494
0.1874406595753583,0.17407326061461723
0.07957947256492157,0.11984890783808358
0.06470257862359433,0.040768110022083984
0.03354306116920821,-0.047758990414097584
